9.9 51.0
9.9204 55.0
9.9409 48.0
9.9613 44.0
9.9817 50.0
10.0022 57.0
10.0226 44.0
10.043 44.0
10.0635 49.0
10.0839 45.0
10.1043 49.0
10.1248 45.0
10.1452 51.0
10.1656 46.0
10.1861 58.0
10.2065 51.0
10.2269 47.0
10.2474 61.0
10.2678 66.0
10.2882 44.0
10.3087 49.0
10.3291 48.0
10.3495 54.0
10.3699 52.0
10.3904 42.0
10.4108 47.0
10.4312 41.0
10.4517 48.0
10.4721 51.0
10.4925 54.0
10.513 52.0
10.5334 55.0
10.5538 55.0
10.5743 56.0
10.5947 45.0
10.6151 51.0
10.6356 41.0
10.656 39.0
10.6764 38.0
10.6969 42.0
10.7173 51.0
10.7377 45.0
10.7582 52.0
10.7786 49.0
10.799 54.0
10.8195 46.0
10.8399 45.0
10.8603 46.0
10.8808 44.0
10.9012 33.0
10.9216 58.0
10.9421 50.0
10.9625 47.0
10.9829 47.0
11.0034 57.0
11.0238 43.0
11.0442 51.0
11.0647 35.0
11.0851 40.0
11.1055 47.0
11.126 52.0
11.1464 45.0
11.1668 38.0
11.1873 46.0
11.2077 51.0
11.2281 43.0
11.2486 52.0
11.269 42.0
11.2894 61.0
11.3098 45.0
11.3303 48.0
11.3507 55.0
11.3711 52.0
11.3916 39.0
11.412 55.0
11.4324 45.0
11.4529 44.0
11.4733 46.0
11.4937 58.0
11.5142 36.0
11.5346 53.0
11.555 38.0
11.5755 39.0
11.5959 42.0
11.6163 58.0
11.6368 58.0
11.6572 50.0
11.6776 57.0
11.6981 46.0
11.7185 39.0
11.7389 35.0
11.7594 51.0
11.7798 44.0
11.8002 62.0
11.8207 44.0
11.8411 34.0
11.8615 50.0
11.882 58.0
11.9024 45.0
11.9228 46.0
11.9433 44.0
11.9637 47.0
11.9841 52.0
12.0046 68.0
12.025 46.0
12.0454 36.0
12.0659 45.0
12.0863 54.0
12.1067 48.0
12.1272 46.0
12.1476 49.0
12.168 53.0
12.1884 46.0
12.2089 53.0
12.2293 50.0
12.2497 47.0
12.2702 60.0
12.2906 42.0
12.311 53.0
12.3315 42.0
12.3519 50.0
12.3723 56.0
12.3928 44.0
12.4132 42.0
12.4336 43.0
12.4541 58.0
12.4745 54.0
12.4949 53.0
12.5154 45.0
12.5358 56.0
12.5562 50.0
12.5767 48.0
12.5971 58.0
12.6175 44.0
12.638 50.0
12.6584 48.0
12.6788 51.0
12.6993 59.0
12.7197 50.0
12.7401 49.0
12.7606 59.0
12.781 51.0
12.8014 57.0
12.8219 50.0
12.8423 50.0
12.8627 51.0
12.8832 35.0
12.9036 45.0
12.924 56.0
12.9445 50.0
12.9649 58.0
12.9853 52.0
13.0058 40.0
13.0262 38.0
13.0466 42.0
13.0671 47.0
13.0875 56.0
13.1079 45.0
13.1283 52.0
13.1488 35.0
13.1692 50.0
13.1896 44.0
13.2101 51.0
13.2305 51.0
13.2509 56.0
13.2714 42.0
13.2918 45.0
13.3122 50.0
13.3327 48.0
13.3531 46.0
13.3735 52.0
13.394 58.0
13.4144 52.0
13.4348 54.0
13.4553 47.0
13.4757 63.0
13.4961 59.0
13.5166 51.0
13.537 50.0
13.5574 50.0
13.5779 61.0
13.5983 43.0
13.6187 51.0
13.6392 59.0
13.6596 39.0
13.68 55.0
13.7005 49.0
13.7209 48.0
13.7413 39.0
13.7618 51.0
13.7822 42.0
13.8026 29.0
13.8231 59.0
13.8435 60.0
13.8639 38.0
13.8844 50.0
13.9048 52.0
13.9252 40.0
13.9457 45.0
13.9661 59.0
13.9865 57.0
14.007 43.0
14.0274 43.0
14.0478 57.0
14.0682 45.0
14.0887 57.0
14.1091 55.0
14.1295 55.0
14.15 50.0
14.1704 48.0
14.1908 61.0
14.2113 57.0
14.2317 54.0
14.2521 39.0
14.2726 44.0
14.293 40.0
14.3134 26.0
14.3339 49.0
14.3543 65.0
14.3747 43.0
14.3952 43.0
14.4156 59.0
14.436 51.0
14.4565 40.0
14.4769 54.0
14.4973 68.0
14.5178 48.0
14.5382 53.0
14.5586 50.0
14.5791 58.0
14.5995 46.0
14.6199 54.0
14.6404 47.0
14.6608 52.0
14.6812 47.0
14.7017 53.0
14.7221 61.0
14.7425 45.0
14.763 48.0
14.7834 51.0
14.8038 50.0
14.8243 48.0
14.8447 44.0
14.8651 54.0
14.8856 56.0
14.906 46.0
14.9264 45.0
14.9468 54.0
14.9673 40.0
14.9877 52.0
15.0081 63.0
15.0286 51.0
15.049 61.0
15.0694 58.0
15.0899 54.0
15.1103 51.0
15.1307 51.0
15.1512 49.0
15.1716 54.0
15.192 54.0
15.2125 48.0
15.2329 37.0
15.2533 34.0
15.2738 64.0
15.2942 53.0
15.3146 51.0
15.3351 54.0
15.3555 44.0
15.3759 49.0
15.3964 47.0
15.4168 54.0
15.4372 50.0
15.4577 38.0
15.4781 54.0
15.4985 41.0
15.519 49.0
15.5394 62.0
15.5598 53.0
15.5803 53.0
15.6007 53.0
15.6211 59.0
15.6416 48.0
15.662 63.0
15.6824 51.0
15.7029 49.0
15.7233 37.0
15.7437 59.0
15.7642 42.0
15.7846 44.0
15.805 53.0
15.8255 56.0
15.8459 45.0
15.8663 51.0
15.8867 62.0
15.9072 52.0
15.9276 56.0
15.948 57.0
15.9685 46.0
15.9889 53.0
16.0093 63.0
16.0298 60.0
16.0502 55.0
16.0706 50.0
16.0911 63.0
16.1115 39.0
16.1319 46.0
16.1524 55.0
16.1728 37.0
16.1932 53.0
16.2137 75.0
16.2341 53.0
16.2545 50.0
16.275 36.0
16.2954 73.0
16.3158 59.0
16.3363 50.0
16.3567 43.0
16.3771 52.0
16.3976 57.0
16.418 48.0
16.4384 50.0
16.4589 49.0
16.4793 43.0
16.4997 41.0
16.5202 36.0
16.5406 64.0
16.561 48.0
16.5815 38.0
16.6019 51.0
16.6223 58.0
16.6428 51.0
16.6632 60.0
16.6836 44.0
16.7041 58.0
16.7245 51.0
16.7449 45.0
16.7653 61.0
16.7858 46.0
16.8062 51.0
16.8266 57.0
16.8471 48.0
16.8675 50.0
16.8879 41.0
16.9084 52.0
16.9288 51.0
16.9492 51.0
16.9697 54.0
16.9901 49.0
17.0105 44.0
17.031 51.0
17.0514 57.0
17.0718 52.0
17.0923 61.0
17.1127 57.0
17.1331 60.0
17.1536 65.0
17.174 55.0
17.1944 59.0
17.2149 47.0
17.2353 49.0
17.2557 49.0
17.2762 43.0
17.2966 51.0
17.317 48.0
17.3375 55.0
17.3579 48.0
17.3783 59.0
17.3988 57.0
17.4192 59.0
17.4396 54.0
17.4601 51.0
17.4805 56.0
17.5009 55.0
17.5214 65.0
17.5418 46.0
17.5622 60.0
17.5827 50.0
17.6031 51.0
17.6235 53.0
17.644 56.0
17.6644 42.0
17.6848 59.0
17.7052 39.0
17.7257 61.0
17.7461 67.0
17.7665 42.0
17.787 55.0
17.8074 60.0
17.8278 49.0
17.8483 65.0
17.8687 52.0
17.8891 58.0
17.9096 57.0
17.93 53.0
17.9504 48.0
17.9709 68.0
17.9913 45.0
18.0117 55.0
18.0322 45.0
18.0526 51.0
18.073 46.0
18.0935 48.0
18.1139 60.0
18.1343 45.0
18.1548 63.0
18.1752 60.0
18.1956 59.0
18.2161 63.0
18.2365 52.0
18.2569 57.0
18.2774 52.0
18.2978 50.0
18.3182 55.0
18.3387 50.0
18.3591 61.0
18.3795 59.0
18.4 60.0
18.4204 84.0
18.4408 52.0
18.4613 48.0
18.4817 52.0
18.5021 49.0
18.5226 55.0
18.543 57.0
18.5634 58.0
18.5839 59.0
18.6043 44.0
18.6247 52.0
18.6451 58.0
18.6656 69.0
18.686 49.0
18.7064 61.0
18.7269 60.0
18.7473 53.0
18.7677 53.0
18.7882 56.0
18.8086 37.0
18.829 46.0
18.8495 67.0
18.8699 76.0
18.8903 63.0
18.9108 59.0
18.9312 60.0
18.9516 71.0
18.9721 57.0
18.9925 54.0
19.0129 50.0
19.0334 59.0
19.0538 54.0
19.0742 37.0
19.0947 65.0
19.1151 45.0
19.1355 62.0
19.156 54.0
19.1764 60.0
19.1968 68.0
19.2173 59.0
19.2377 65.0
19.2581 71.0
19.2786 46.0
19.299 73.0
19.3194 64.0
19.3399 57.0
19.3603 49.0
19.3807 44.0
19.4012 55.0
19.4216 47.0
19.442 50.0
19.4625 44.0
19.4829 53.0
19.5033 50.0
19.5237 49.0
19.5442 47.0
19.5646 52.0
19.585 53.0
19.6055 62.0
19.6259 70.0
19.6463 69.0
19.6668 46.0
19.6872 57.0
19.7076 63.0
19.7281 55.0
19.7485 62.0
19.7689 58.0
19.7894 60.0
19.8098 77.0
19.8302 46.0
19.8507 59.0
19.8711 45.0
19.8915 52.0
19.912 53.0
19.9324 53.0
19.9528 64.0
19.9733 58.0
19.9937 50.0
20.0141 64.0
20.0346 65.0
20.055 48.0
20.0754 52.0
20.0959 63.0
20.1163 66.0
20.1367 59.0
20.1572 56.0
20.1776 43.0
20.198 51.0
20.2185 55.0
20.2389 55.0
20.2593 64.0
20.2798 58.0
20.3002 57.0
20.3206 66.0
20.3411 46.0
20.3615 63.0
20.3819 65.0
20.4024 41.0
20.4228 33.0
20.4432 54.0
20.4636 67.0
20.4841 71.0
20.5045 70.0
20.5249 64.0
20.5454 53.0
20.5658 72.0
20.5862 55.0
20.6067 58.0
20.6271 65.0
20.6475 50.0
20.668 63.0
20.6884 60.0
20.7088 52.0
20.7293 67.0
20.7497 68.0
20.7701 55.0
20.7906 73.0
20.811 69.0
20.8314 54.0
20.8519 69.0
20.8723 45.0
20.8927 60.0
20.9132 64.0
20.9336 61.0
20.954 51.0
20.9745 59.0
20.9949 57.0
21.0153 67.0
21.0358 55.0
21.0562 48.0
21.0766 50.0
21.0971 52.0
21.1175 50.0
21.1379 50.0
21.1584 57.0
21.1788 51.0
21.1992 89.0
21.2197 62.0
21.2401 77.0
21.2605 63.0
21.281 79.0
21.3014 66.0
21.3218 81.0
21.3422 71.0
21.3627 85.0
21.3831 111.0
21.4035 124.0
21.424 143.0
21.4444 227.0
21.4648 309.0
21.4853 308.0
21.5057 256.0
21.5261 267.0
21.5466 225.0
21.567 166.0
21.5874 122.0
21.6079 120.0
21.6283 93.0
21.6487 87.0
21.6692 66.0
21.6896 89.0
21.71 92.0
21.7305 78.0
21.7509 73.0
21.7713 58.0
21.7918 69.0
21.8122 68.0
21.8326 52.0
21.8531 71.0
21.8735 55.0
21.8939 51.0
21.9144 55.0
21.9348 58.0
21.9552 54.0
21.9757 56.0
21.9961 59.0
22.0165 63.0
22.037 57.0
22.0574 55.0
22.0778 60.0
22.0983 61.0
22.1187 71.0
22.1391 46.0
22.1596 55.0
22.18 53.0
22.2004 49.0
22.2209 57.0
22.2413 58.0
22.2617 59.0
22.2821 37.0
22.3026 55.0
22.323 51.0
22.3434 41.0
22.3639 53.0
22.3843 58.0
22.4047 52.0
22.4252 76.0
22.4456 61.0
22.466 58.0
22.4865 56.0
22.5069 55.0
22.5273 58.0
22.5478 46.0
22.5682 49.0
22.5886 43.0
22.6091 52.0
22.6295 44.0
22.6499 62.0
22.6704 62.0
22.6908 59.0
22.7112 54.0
22.7317 66.0
22.7521 54.0
22.7725 64.0
22.793 64.0
22.8134 68.0
22.8338 65.0
22.8543 48.0
22.8747 62.0
22.8951 70.0
22.9156 61.0
22.936 70.0
22.9564 52.0
22.9769 69.0
22.9973 45.0
23.0177 39.0
23.0382 59.0
23.0586 51.0
23.079 51.0
23.0995 64.0
23.1199 52.0
23.1403 58.0
23.1608 63.0
23.1812 40.0
23.2016 61.0
23.222 59.0
23.2425 62.0
23.2629 54.0
23.2833 59.0
23.3038 61.0
23.3242 53.0
23.3446 56.0
23.3651 75.0
23.3855 58.0
23.4059 70.0
23.4264 59.0
23.4468 65.0
23.4672 62.0
23.4877 58.0
23.5081 81.0
23.5285 71.0
23.549 71.0
23.5694 98.0
23.5898 72.0
23.6103 79.0
23.6307 61.0
23.6511 83.0
23.6716 52.0
23.692 74.0
23.7124 65.0
23.7329 76.0
23.7533 68.0
23.7737 80.0
23.7942 54.0
23.8146 65.0
23.835 66.0
23.8555 61.0
23.8759 49.0
23.8963 66.0
23.9168 56.0
23.9372 65.0
23.9576 57.0
23.9781 47.0
23.9985 60.0
24.0189 56.0
24.0394 76.0
24.0598 62.0
24.0802 61.0
24.1006 52.0
24.1211 56.0
24.1415 55.0
24.1619 62.0
24.1824 50.0
24.2028 43.0
24.2232 54.0
24.2437 45.0
24.2641 51.0
24.2845 49.0
24.305 65.0
24.3254 67.0
24.3458 46.0
24.3663 54.0
24.3867 55.0
24.4071 60.0
24.4276 48.0
24.448 65.0
24.4684 67.0
24.4889 53.0
24.5093 47.0
24.5297 57.0
24.5502 65.0
24.5706 51.0
24.591 55.0
24.6115 54.0
24.6319 63.0
24.6523 56.0
24.6728 56.0
24.6932 45.0
24.7136 47.0
24.7341 54.0
24.7545 41.0
24.7749 50.0
24.7954 59.0
24.8158 54.0
24.8362 61.0
24.8567 51.0
24.8771 62.0
24.8975 55.0
24.918 49.0
24.9384 57.0
24.9588 64.0
24.9793 50.0
24.9997 54.0
25.0201 53.0
25.0405 62.0
25.061 56.0
25.0814 57.0
25.1018 64.0
25.1223 72.0
25.1427 63.0
25.1631 62.0
25.1836 53.0
25.204 65.0
25.2244 60.0
25.2449 56.0
25.2653 40.0
25.2857 65.0
25.3062 55.0
25.3266 62.0
25.347 60.0
25.3675 47.0
25.3879 55.0
25.4083 56.0
25.4288 56.0
25.4492 52.0
25.4696 62.0
25.4901 67.0
25.5105 63.0
25.5309 61.0
25.5514 59.0
25.5718 55.0
25.5922 47.0
25.6127 64.0
25.6331 50.0
25.6535 63.0
25.674 61.0
25.6944 47.0
25.7148 59.0
25.7353 52.0
25.7557 65.0
25.7761 70.0
25.7966 49.0
25.817 52.0
25.8374 57.0
25.8579 49.0
25.8783 51.0
25.8987 53.0
25.9191 61.0
25.9396 52.0
25.96 64.0
25.9804 65.0
26.0009 55.0
26.0213 67.0
26.0417 61.0
26.0622 65.0
26.0826 59.0
26.103 64.0
26.1235 57.0
26.1439 50.0
26.1643 60.0
26.1848 76.0
26.2052 73.0
26.2256 53.0
26.2461 67.0
26.2665 57.0
26.2869 48.0
26.3074 48.0
26.3278 63.0
26.3482 55.0
26.3687 62.0
26.3891 61.0
26.4095 64.0
26.43 62.0
26.4504 56.0
26.4708 53.0
26.4913 50.0
26.5117 55.0
26.5321 58.0
26.5526 57.0
26.573 55.0
26.5934 61.0
26.6139 59.0
26.6343 58.0
26.6547 54.0
26.6752 72.0
26.6956 52.0
26.716 52.0
26.7365 61.0
26.7569 64.0
26.7773 62.0
26.7978 71.0
26.8182 59.0
26.8386 63.0
26.859 51.0
26.8795 59.0
26.8999 41.0
26.9203 52.0
26.9408 53.0
26.9612 60.0
26.9816 59.0
27.0021 49.0
27.0225 63.0
27.0429 55.0
27.0634 69.0
27.0838 62.0
27.1042 50.0
27.1247 63.0
27.1451 51.0
27.1655 55.0
27.186 61.0
27.2064 58.0
27.2268 59.0
27.2473 48.0
27.2677 69.0
27.2881 55.0
27.3086 52.0
27.329 58.0
27.3494 51.0
27.3699 60.0
27.3903 54.0
27.4107 51.0
27.4312 64.0
27.4516 55.0
27.472 53.0
27.4925 57.0
27.5129 68.0
27.5333 75.0
27.5538 83.0
27.5742 48.0
27.5946 64.0
27.6151 72.0
27.6355 73.0
27.6559 56.0
27.6764 66.0
27.6968 54.0
27.7172 54.0
27.7377 61.0
27.7581 66.0
27.7785 47.0
27.7989 65.0
27.8194 52.0
27.8398 61.0
27.8602 48.0
27.8807 52.0
27.9011 49.0
27.9215 51.0
27.942 64.0
27.9624 74.0
27.9828 59.0
28.0033 56.0
28.0237 67.0
28.0441 58.0
28.0646 61.0
28.085 60.0
28.1054 67.0
28.1259 55.0
28.1463 74.0
28.1667 70.0
28.1872 53.0
28.2076 54.0
28.228 53.0
28.2485 61.0
28.2689 55.0
28.2893 76.0
28.3098 65.0
28.3302 64.0
28.3506 45.0
28.3711 74.0
28.3915 72.0
28.4119 55.0
28.4324 63.0
28.4528 53.0
28.4732 46.0
28.4937 52.0
28.5141 49.0
28.5345 47.0
28.555 61.0
28.5754 47.0
28.5958 52.0
28.6163 58.0
28.6367 59.0
28.6571 53.0
28.6775 76.0
28.698 60.0
28.7184 48.0
28.7388 51.0
28.7593 55.0
28.7797 58.0
28.8001 79.0
28.8206 48.0
28.841 58.0
28.8614 87.0
28.8819 63.0
28.9023 51.0
28.9227 71.0
28.9432 54.0
28.9636 66.0
28.984 60.0
29.0045 67.0
29.0249 63.0
29.0453 65.0
29.0658 65.0
29.0862 66.0
29.1066 67.0
29.1271 66.0
29.1475 61.0
29.1679 66.0
29.1884 73.0
29.2088 66.0
29.2292 64.0
29.2497 56.0
29.2701 66.0
29.2905 55.0
29.311 76.0
29.3314 76.0
29.3518 75.0
29.3723 65.0
29.3927 77.0
29.4131 65.0
29.4336 70.0
29.454 77.0
29.4744 77.0
29.4949 62.0
29.5153 103.0
29.5357 96.0
29.5562 104.0
29.5766 112.0
29.597 113.0
29.6174 93.0
29.6379 102.0
29.6583 102.0
29.6787 108.0
29.6992 87.0
29.7196 87.0
29.74 55.0
29.7605 66.0
29.7809 66.0
29.8013 71.0
29.8218 70.0
29.8422 51.0
29.8626 79.0
29.8831 74.0
29.9035 62.0
29.9239 63.0
29.9444 58.0
29.9648 63.0
29.9852 57.0
30.0057 72.0
30.0261 56.0
30.0465 62.0
30.067 78.0
30.0874 63.0
30.1078 52.0
30.1283 69.0
30.1487 72.0
30.1691 77.0
30.1896 70.0
30.21 54.0
30.2304 52.0
30.2509 72.0
30.2713 65.0
30.2917 60.0
30.3122 60.0
30.3326 88.0
30.353 67.0
30.3735 58.0
30.3939 58.0
30.4143 62.0
30.4348 72.0
30.4552 74.0
30.4756 79.0
30.496 98.0
30.5165 88.0
30.5369 85.0
30.5573 92.0
30.5778 113.0
30.5982 127.0
30.6186 156.0
30.6391 145.0
30.6595 186.0
30.6799 189.0
30.7004 189.0
30.7208 213.0
30.7412 197.0
30.7617 188.0
30.7821 152.0
30.8025 130.0
30.823 120.0
30.8434 106.0
30.8638 102.0
30.8843 86.0
30.9047 74.0
30.9251 93.0
30.9456 75.0
30.966 76.0
30.9864 75.0
31.0069 71.0
31.0273 86.0
31.0477 65.0
31.0682 68.0
31.0886 64.0
31.109 65.0
31.1295 58.0
31.1499 57.0
31.1703 90.0
31.1908 86.0
31.2112 66.0
31.2316 68.0
31.2521 81.0
31.2725 79.0
31.2929 72.0
31.3134 81.0
31.3338 67.0
31.3542 66.0
31.3747 73.0
31.3951 73.0
31.4155 81.0
31.4359 85.0
31.4564 60.0
31.4768 89.0
31.4972 64.0
31.5177 77.0
31.5381 76.0
31.5585 79.0
31.579 79.0
31.5994 85.0
31.6198 91.0
31.6403 97.0
31.6607 115.0
31.6811 135.0
31.7016 123.0
31.722 142.0
31.7424 169.0
31.7629 197.0
31.7833 238.0
31.8037 275.0
31.8242 312.0
31.8446 375.0
31.865 369.0
31.8855 402.0
31.9059 377.0
31.9263 319.0
31.9468 317.0
31.9672 276.0
31.9876 272.0
32.0081 225.0
32.0285 196.0
32.0489 156.0
32.0694 152.0
32.0898 143.0
32.1102 113.0
32.1307 88.0
32.1511 89.0
32.1715 81.0
32.192 81.0
32.2124 83.0
32.2328 73.0
32.2533 66.0
32.2737 62.0
32.2941 81.0
32.3146 80.0
32.335 82.0
32.3554 72.0
32.3758 59.0
32.3963 73.0
32.4167 77.0
32.4371 63.0
32.4576 75.0
32.478 54.0
32.4984 56.0
32.5189 64.0
32.5393 67.0
32.5597 64.0
32.5802 60.0
32.6006 64.0
32.621 78.0
32.6415 81.0
32.6619 71.0
32.6823 76.0
32.7028 61.0
32.7232 61.0
32.7436 81.0
32.7641 71.0
32.7845 77.0
32.8049 68.0
32.8254 67.0
32.8458 69.0
32.8662 62.0
32.8867 48.0
32.9071 68.0
32.9275 65.0
32.948 53.0
32.9684 58.0
32.9888 66.0
33.0093 63.0
33.0297 53.0
33.0501 70.0
33.0706 60.0
33.091 67.0
33.1114 66.0
33.1319 54.0
33.1523 51.0
33.1727 62.0
33.1932 64.0
33.2136 64.0
33.234 47.0
33.2544 60.0
33.2749 59.0
33.2953 65.0
33.3157 56.0
33.3362 64.0
33.3566 53.0
33.377 68.0
33.3975 58.0
33.4179 55.0
33.4383 67.0
33.4588 64.0
33.4792 62.0
33.4996 62.0
33.5201 47.0
33.5405 63.0
33.5609 57.0
33.5814 54.0
33.6018 62.0
33.6222 57.0
33.6427 57.0
33.6631 59.0
33.6835 55.0
33.704 60.0
33.7244 62.0
33.7448 63.0
33.7653 44.0
33.7857 75.0
33.8061 76.0
33.8266 72.0
33.847 64.0
33.8674 56.0
33.8879 74.0
33.9083 59.0
33.9287 76.0
33.9492 71.0
33.9696 73.0
33.99 77.0
34.0105 69.0
34.0309 69.0
34.0513 62.0
34.0718 87.0
34.0922 94.0
34.1126 110.0
34.1331 94.0
34.1535 113.0
34.1739 117.0
34.1943 127.0
34.2148 136.0
34.2352 126.0
34.2556 145.0
34.2761 117.0
34.2965 103.0
34.3169 104.0
34.3374 103.0
34.3578 68.0
34.3782 62.0
34.3987 74.0
34.4191 75.0
34.4395 74.0
34.46 83.0
34.4804 75.0
34.5008 63.0
34.5213 52.0
34.5417 65.0
34.5621 64.0
34.5826 70.0
34.603 59.0
34.6234 66.0
34.6439 69.0
34.6643 63.0
34.6847 60.0
34.7052 65.0
34.7256 66.0
34.746 53.0
34.7665 54.0
34.7869 62.0
34.8073 63.0
34.8278 58.0
34.8482 67.0
34.8686 63.0
34.8891 65.0
34.9095 65.0
34.9299 62.0
34.9504 59.0
34.9708 50.0
34.9912 77.0
35.0117 50.0
35.0321 70.0
35.0525 63.0
35.0729 64.0
35.0934 65.0
35.1138 72.0
35.1342 59.0
35.1547 58.0
35.1751 56.0
35.1955 64.0
35.216 61.0
35.2364 65.0
35.2568 64.0
35.2773 56.0
35.2977 69.0
35.3181 61.0
35.3386 56.0
35.359 55.0
35.3794 49.0
35.3999 57.0
35.4203 63.0
35.4407 66.0
35.4612 57.0
35.4816 46.0
35.502 51.0
35.5225 58.0
35.5429 58.0
35.5633 60.0
35.5838 61.0
35.6042 70.0
35.6246 57.0
35.6451 67.0
35.6655 72.0
35.6859 70.0
35.7064 75.0
35.7268 61.0
35.7472 68.0
35.7677 71.0
35.7881 50.0
35.8085 72.0
35.829 65.0
35.8494 50.0
35.8698 71.0
35.8903 69.0
35.9107 81.0
35.9311 57.0
35.9516 67.0
35.972 75.0
35.9924 76.0
36.0128 62.0
36.0333 73.0
36.0537 76.0
36.0741 83.0
36.0946 90.0
36.115 76.0
36.1354 109.0
36.1559 137.0
36.1763 145.0
36.1967 205.0
36.2172 196.0
36.2376 176.0
36.258 170.0
36.2785 177.0
36.2989 165.0
36.3193 169.0
36.3398 122.0
36.3602 121.0
36.3806 84.0
36.4011 111.0
36.4215 88.0
36.4419 58.0
36.4624 70.0
36.4828 68.0
36.5032 81.0
36.5237 82.0
36.5441 87.0
36.5645 84.0
36.585 64.0
36.6054 79.0
36.6258 84.0
36.6463 82.0
36.6667 86.0
36.6871 63.0
36.7076 78.0
36.728 73.0
36.7484 85.0
36.7689 79.0
36.7893 96.0
36.8097 90.0
36.8302 101.0
36.8506 106.0
36.871 94.0
36.8915 98.0
36.9119 126.0
36.9323 85.0
36.9527 119.0
36.9732 132.0
36.9936 150.0
37.014 150.0
37.0345 174.0
37.0549 187.0
37.0753 204.0
37.0958 206.0
37.1162 232.0
37.1366 252.0
37.1571 287.0
37.1775 309.0
37.1979 383.0
37.2184 406.0
37.2388 504.0
37.2592 580.0
37.2797 700.0
37.3001 766.0
37.3205 1049.0
37.341 1190.0
37.3614 1350.0
37.3818 1271.0
37.4023 1239.0
37.4227 1302.0
37.4431 1212.0
37.4636 1087.0
37.484 996.0
37.5044 843.0
37.5249 707.0
37.5453 622.0
37.5657 517.0
37.5862 423.0
37.6066 342.0
37.627 305.0
37.6475 249.0
37.6679 240.0
37.6883 215.0
37.7088 187.0
37.7292 179.0
37.7496 155.0
37.7701 130.0
37.7905 140.0
37.8109 123.0
37.8313 109.0
37.8518 90.0
37.8722 96.0
37.8926 99.0
37.9131 89.0
37.9335 84.0
37.9539 90.0
37.9744 97.0
37.9948 70.0
38.0152 74.0
38.0357 78.0
38.0561 72.0
38.0765 68.0
38.097 82.0
38.1174 89.0
38.1378 89.0
38.1583 79.0
38.1787 67.0
38.1991 79.0
38.2196 61.0
38.24 56.0
38.2604 67.0
38.2809 76.0
38.3013 63.0
38.3217 54.0
38.3422 57.0
38.3626 70.0
38.383 58.0
38.4035 68.0
38.4239 79.0
38.4443 74.0
38.4648 86.0
38.4852 67.0
38.5056 68.0
38.5261 73.0
38.5465 70.0
38.5669 72.0
38.5874 60.0
38.6078 56.0
38.6282 58.0
38.6487 62.0
38.6691 63.0
38.6895 59.0
38.71 63.0
38.7304 83.0
38.7508 58.0
38.7712 61.0
38.7917 73.0
38.8121 57.0
38.8325 54.0
38.853 62.0
38.8734 69.0
38.8938 67.0
38.9143 68.0
38.9347 68.0
38.9551 65.0
38.9756 61.0
38.996 59.0
39.0164 63.0
39.0369 79.0
39.0573 64.0
39.0777 51.0
39.0982 78.0
39.1186 57.0
39.139 52.0
39.1595 72.0
39.1799 54.0
39.2003 63.0
39.2208 64.0
39.2412 61.0
39.2616 51.0
39.2821 58.0
39.3025 58.0
39.3229 57.0
39.3434 60.0
39.3638 63.0
39.3842 59.0
39.4047 59.0
39.4251 74.0
39.4455 60.0
39.466 52.0
39.4864 51.0
39.5068 58.0
39.5273 70.0
39.5477 83.0
39.5681 55.0
39.5886 79.0
39.609 104.0
39.6294 99.0
39.6498 125.0
39.6703 132.0
39.6907 122.0
39.7111 131.0
39.7316 110.0
39.752 100.0
39.7724 103.0
39.7929 109.0
39.8133 98.0
39.8337 104.0
39.8542 84.0
39.8746 90.0
39.895 75.0
39.9155 87.0
39.9359 71.0
39.9563 64.0
39.9768 75.0
39.9972 76.0
40.0176 67.0
40.0381 74.0
40.0585 74.0
40.0789 67.0
40.0994 71.0
40.1198 55.0
40.1402 70.0
40.1607 83.0
40.1811 62.0
40.2015 73.0
40.222 75.0
40.2424 56.0
40.2628 72.0
40.2833 55.0
40.3037 62.0
40.3241 64.0
40.3446 69.0
40.365 60.0
40.3854 65.0
40.4059 70.0
40.4263 61.0
40.4467 63.0
40.4672 63.0
40.4876 64.0
40.508 61.0
40.5285 61.0
40.5489 59.0
40.5693 56.0
40.5897 61.0
40.6102 57.0
40.6306 59.0
40.651 56.0
40.6715 65.0
40.6919 52.0
40.7123 71.0
40.7328 61.0
40.7532 56.0
40.7736 66.0
40.7941 54.0
40.8145 45.0
40.8349 49.0
40.8554 51.0
40.8758 59.0
40.8962 52.0
40.9167 61.0
40.9371 65.0
40.9575 62.0
40.978 65.0
40.9984 55.0
41.0188 64.0
41.0393 57.0
41.0597 65.0
41.0801 68.0
41.1006 70.0
41.121 64.0
41.1414 63.0
41.1619 60.0
41.1823 76.0
41.2027 74.0
41.2232 57.0
41.2436 54.0
41.264 49.0
41.2845 69.0
41.3049 67.0
41.3253 57.0
41.3458 56.0
41.3662 58.0
41.3866 66.0
41.4071 57.0
41.4275 62.0
41.4479 64.0
41.4684 64.0
41.4888 72.0
41.5092 73.0
41.5296 58.0
41.5501 61.0
41.5705 78.0
41.5909 61.0
41.6114 53.0
41.6318 64.0
41.6522 64.0
41.6727 55.0
41.6931 66.0
41.7135 57.0
41.734 71.0
41.7544 64.0
41.7748 57.0
41.7953 76.0
41.8157 64.0
41.8361 75.0
41.8566 75.0
41.877 72.0
41.8974 78.0
41.9179 73.0
41.9383 68.0
41.9587 65.0
41.9792 78.0
41.9996 59.0
42.02 64.0
42.0405 63.0
42.0609 82.0
42.0813 52.0
42.1018 77.0
42.1222 90.0
42.1426 72.0
42.1631 73.0
42.1835 73.0
42.2039 67.0
42.2244 93.0
42.2448 76.0
42.2652 73.0
42.2857 79.0
42.3061 64.0
42.3265 56.0
42.347 78.0
42.3674 73.0
42.3878 89.0
42.4082 70.0
42.4287 69.0
42.4491 75.0
42.4695 53.0
42.49 73.0
42.5104 83.0
42.5308 80.0
42.5513 73.0
42.5717 80.0
42.5921 67.0
42.6126 87.0
42.633 90.0
42.6534 89.0
42.6739 84.0
42.6943 66.0
42.7147 81.0
42.7352 75.0
42.7556 94.0
42.776 100.0
42.7965 89.0
42.8169 92.0
42.8373 114.0
42.8578 114.0
42.8782 124.0
42.8986 102.0
42.9191 126.0
42.9395 125.0
42.9599 121.0
42.9804 139.0
43.0008 135.0
43.0212 148.0
43.0417 156.0
43.0621 179.0
43.0825 187.0
43.103 209.0
43.1234 245.0
43.1438 243.0
43.1643 290.0
43.1847 375.0
43.2051 381.0
43.2256 441.0
43.246 529.0
43.2664 603.0
43.2869 777.0
43.3073 948.0
43.3277 1301.0
43.3481 1580.0
43.3686 1983.0
43.389 2249.0
43.4094 2277.0
43.4299 2011.0
43.4503 2033.0
43.4707 1824.0
43.4912 1771.0
43.5116 1680.0
43.532 1419.0
43.5525 1242.0
43.5729 1024.0
43.5933 818.0
43.6138 640.0
43.6342 531.0
43.6546 452.0
43.6751 398.0
43.6955 322.0
43.7159 296.0
43.7364 262.0
43.7568 213.0
43.7772 201.0
43.7977 181.0
43.8181 152.0
43.8385 144.0
43.859 134.0
43.8794 121.0
43.8998 118.0
43.9203 120.0
43.9407 108.0
43.9611 118.0
43.9816 94.0
44.002 91.0
44.0224 92.0
44.0429 110.0
44.0633 96.0
44.0837 97.0
44.1042 84.0
44.1246 94.0
44.145 92.0
44.1655 85.0
44.1859 83.0
44.2063 82.0
44.2267 77.0
44.2472 83.0
44.2676 74.0
44.288 91.0
44.3085 75.0
44.3289 90.0
44.3493 78.0
44.3698 62.0
44.3902 65.0
44.4106 69.0
44.4311 88.0
44.4515 73.0
44.4719 72.0
44.4924 74.0
44.5128 60.0
44.5332 70.0
44.5537 62.0
44.5741 70.0
44.5945 75.0
44.615 60.0
44.6354 80.0
44.6558 80.0
44.6763 63.0
44.6967 57.0
44.7171 65.0
44.7376 71.0
44.758 64.0
44.7784 72.0
44.7989 65.0
44.8193 67.0
44.8397 78.0
44.8602 76.0
44.8806 62.0
44.901 58.0
44.9215 63.0
44.9419 81.0
44.9623 64.0
44.9828 69.0
45.0032 70.0
45.0236 73.0
45.0441 75.0
45.0645 71.0
45.0849 68.0
45.1054 52.0
45.1258 66.0
45.1462 58.0
45.1666 68.0
45.1871 49.0
45.2075 70.0
45.2279 69.0
45.2484 59.0
45.2688 56.0
45.2892 68.0
45.3097 70.0
45.3301 61.0
45.3505 49.0
45.371 55.0
45.3914 74.0
45.4118 65.0
45.4323 61.0
45.4527 50.0
45.4731 52.0
45.4936 59.0
45.514 74.0
45.5344 73.0
45.5549 66.0
45.5753 70.0
45.5957 74.0
45.6162 68.0
45.6366 53.0
45.657 63.0
45.6775 64.0
45.6979 58.0
45.7183 69.0
45.7388 58.0
45.7592 66.0
45.7796 59.0
45.8001 50.0
45.8205 57.0
45.8409 57.0
45.8614 63.0
45.8818 61.0
45.9022 65.0
45.9227 64.0
45.9431 54.0
45.9635 69.0
45.984 67.0
46.0044 62.0
46.0248 63.0
46.0453 74.0
46.0657 63.0
46.0861 49.0
46.1065 53.0
46.127 64.0
46.1474 71.0
46.1678 54.0
46.1883 51.0
46.2087 49.0
46.2291 61.0
46.2496 70.0
46.27 61.0
46.2904 60.0
46.3109 68.0
46.3313 48.0
46.3517 55.0
46.3722 56.0
46.3926 50.0
46.413 63.0
46.4335 50.0
46.4539 47.0
46.4743 61.0
46.4948 54.0
46.5152 48.0
46.5356 63.0
46.5561 58.0
46.5765 59.0
46.5969 45.0
46.6174 62.0
46.6378 60.0
46.6582 65.0
46.6787 54.0
46.6991 60.0
46.7195 61.0
46.74 47.0
46.7604 48.0
46.7808 69.0
46.8013 46.0
46.8217 76.0
46.8421 58.0
46.8626 50.0
46.883 41.0
46.9034 72.0
46.9239 64.0
46.9443 54.0
46.9647 54.0
46.9851 68.0
47.0056 76.0
47.026 60.0
47.0464 58.0
47.0669 47.0
47.0873 62.0
47.1077 65.0
47.1282 64.0
47.1486 54.0
47.169 55.0
47.1895 66.0
47.2099 35.0
47.2303 48.0
47.2508 67.0
47.2712 71.0
47.2916 59.0
47.3121 61.0
47.3325 58.0
47.3529 55.0
47.3734 57.0
47.3938 64.0
47.4142 55.0
47.4347 63.0
47.4551 48.0
47.4755 84.0
47.496 57.0
47.5164 61.0
47.5368 47.0
47.5573 44.0
47.5777 56.0
47.5981 41.0
47.6186 59.0
47.639 79.0
47.6594 50.0
47.6799 44.0
47.7003 55.0
47.7207 65.0
47.7412 61.0
47.7616 53.0
47.782 54.0
47.8025 42.0
47.8229 61.0
47.8433 51.0
47.8638 64.0
47.8842 52.0
47.9046 62.0
47.925 55.0
47.9455 58.0
47.9659 71.0
47.9863 39.0
48.0068 68.0
48.0272 71.0
48.0476 60.0
48.0681 76.0
48.0885 86.0
48.1089 74.0
48.1294 61.0
48.1498 58.0
48.1702 56.0
48.1907 66.0
48.2111 50.0
48.2315 67.0
48.252 53.0
48.2724 49.0
48.2928 63.0
48.3133 55.0
48.3337 76.0
48.3541 67.0
48.3746 65.0
48.395 53.0
48.4154 56.0
48.4359 56.0
48.4563 69.0
48.4767 55.0
48.4972 69.0
48.5176 48.0
48.538 52.0
48.5585 59.0
48.5789 67.0
48.5993 61.0
48.6198 67.0
48.6402 70.0
48.6606 65.0
48.6811 78.0
48.7015 56.0
48.7219 63.0
48.7424 86.0
48.7628 82.0
48.7832 69.0
48.8036 66.0
48.8241 64.0
48.8445 84.0
48.8649 92.0
48.8854 83.0
48.9058 61.0
48.9262 68.0
48.9467 77.0
48.9671 80.0
48.9875 60.0
49.008 69.0
49.0284 80.0
49.0488 64.0
49.0693 69.0
49.0897 72.0
49.1101 85.0
49.1306 63.0
49.151 68.0
49.1714 64.0
49.1919 71.0
49.2123 60.0
49.2327 60.0
49.2532 67.0
49.2736 54.0
49.294 63.0
49.3145 69.0
49.3349 56.0
49.3553 52.0
49.3758 61.0
49.3962 57.0
49.4166 66.0
49.4371 51.0
49.4575 67.0
49.4779 73.0
49.4984 71.0
49.5188 69.0
49.5392 50.0
49.5597 56.0
49.5801 58.0
49.6005 75.0
49.621 60.0
49.6414 58.0
49.6618 54.0
49.6823 56.0
49.7027 64.0
49.7231 67.0
49.7435 56.0
49.764 57.0
49.7844 45.0
49.8048 53.0
49.8253 56.0
49.8457 48.0
49.8661 66.0
49.8866 70.0
49.907 60.0
49.9274 57.0
49.9479 52.0
49.9683 58.0
49.9887 60.0
50.0092 72.0
50.0296 64.0
50.05 42.0
50.0705 56.0
50.0909 57.0
50.1113 61.0
50.1318 53.0
50.1522 57.0
50.1726 59.0
50.1931 66.0
50.2135 79.0
50.2339 58.0
50.2544 51.0
50.2748 73.0
50.2952 71.0
50.3157 63.0
50.3361 52.0
50.3565 51.0
50.377 66.0
50.3974 68.0
50.4178 66.0
50.4383 65.0
50.4587 61.0
50.4791 67.0
50.4996 68.0
50.52 81.0
50.5404 57.0
50.5609 55.0
50.5813 65.0
50.6017 66.0
50.6221 58.0
50.6426 59.0
50.663 58.0
50.6834 64.0
50.7039 53.0
50.7243 55.0
50.7447 54.0
50.7652 51.0
50.7856 59.0
50.806 62.0
50.8265 62.0
50.8469 67.0
50.8673 61.0
50.8878 70.0
50.9082 58.0
50.9286 70.0
50.9491 60.0
50.9695 58.0
50.9899 63.0
51.0104 58.0
51.0308 48.0
51.0512 62.0
51.0717 56.0
51.0921 57.0
51.1125 50.0
51.133 51.0
51.1534 74.0
51.1738 58.0
51.1943 61.0
51.2147 46.0
51.2351 52.0
51.2556 60.0
51.276 59.0
51.2964 61.0
51.3169 51.0
51.3373 47.0
51.3577 57.0
51.3782 57.0
51.3986 55.0
51.419 52.0
51.4395 53.0
51.4599 66.0
51.4803 55.0
51.5008 55.0
51.5212 57.0
51.5416 57.0
51.562 58.0
51.5825 47.0
51.6029 62.0
51.6233 58.0
51.6438 60.0
51.6642 75.0
51.6846 54.0
51.7051 62.0
51.7255 45.0
51.7459 45.0
51.7664 60.0
51.7868 56.0
51.8072 61.0
51.8277 42.0
51.8481 46.0
51.8685 49.0
51.889 53.0
51.9094 58.0
51.9298 69.0
51.9503 61.0
51.9707 59.0
51.9911 55.0
52.0116 63.0
52.032 46.0
52.0524 63.0
52.0729 61.0
52.0933 62.0
52.1137 62.0
52.1342 54.0
52.1546 71.0
52.175 45.0
52.1955 59.0
52.2159 54.0
52.2363 62.0
52.2568 60.0
52.2772 55.0
52.2976 54.0
52.3181 49.0
52.3385 46.0
52.3589 60.0
52.3794 43.0
52.3998 68.0
52.4202 69.0
52.4407 70.0
52.4611 55.0
52.4815 58.0
52.5019 60.0
52.5224 63.0
52.5428 58.0
52.5632 65.0
52.5837 54.0
52.6041 53.0
52.6245 46.0
52.645 50.0
52.6654 73.0
52.6858 46.0
52.7063 51.0
52.7267 49.0
52.7471 57.0
52.7676 61.0
52.788 60.0
52.8084 54.0
52.8289 53.0
52.8493 53.0
52.8697 55.0
52.8902 58.0
52.9106 56.0
52.931 55.0
52.9515 56.0
52.9719 59.0
52.9923 61.0
53.0128 57.0
53.0332 55.0
53.0536 70.0
53.0741 43.0
53.0945 58.0
53.1149 59.0
53.1354 58.0
53.1558 59.0
53.1762 67.0
53.1967 44.0
53.2171 60.0
53.2375 47.0
53.258 45.0
53.2784 49.0
53.2988 61.0
53.3193 49.0
53.3397 52.0
53.3601 61.0
53.3805 55.0
53.401 64.0
53.4214 64.0
53.4418 53.0
53.4623 49.0
53.4827 54.0
53.5031 61.0
53.5236 64.0
53.544 59.0
53.5644 40.0
53.5849 60.0
53.6053 71.0
53.6257 54.0
53.6462 66.0
53.6666 62.0
53.687 62.0
53.7075 46.0
53.7279 61.0
53.7483 55.0
53.7688 63.0
53.7892 51.0
53.8096 55.0
53.8301 60.0
53.8505 45.0
53.8709 59.0
53.8914 60.0
53.9118 57.0
53.9322 56.0
53.9527 58.0
53.9731 62.0
53.9935 46.0
54.014 66.0
54.0344 56.0
54.0548 43.0
54.0753 59.0
54.0957 67.0
54.1161 51.0
54.1366 55.0
54.157 56.0
54.1774 64.0
54.1979 51.0
54.2183 65.0
54.2387 51.0
54.2592 49.0
54.2796 40.0
54.3 57.0
54.3204 73.0
54.3409 52.0
54.3613 43.0
54.3817 50.0
54.4022 61.0
54.4226 50.0
54.443 50.0
54.4635 62.0
54.4839 58.0
54.5043 51.0
54.5248 64.0
54.5452 61.0
54.5656 64.0
54.5861 46.0
54.6065 46.0
54.6269 55.0
54.6474 48.0
54.6678 55.0
54.6882 48.0
54.7087 60.0
54.7291 61.0
54.7495 45.0
54.77 64.0
54.7904 52.0
54.8108 69.0
54.8313 63.0
54.8517 46.0
54.8721 45.0
54.8926 68.0
54.913 56.0
54.9334 54.0
54.9539 50.0
54.9743 54.0
54.9947 67.0
55.0152 47.0
55.0356 54.0
55.056 53.0
55.0765 51.0
55.0969 60.0
55.1173 58.0
55.1378 67.0
55.1582 51.0
55.1786 56.0
55.199 39.0
55.2195 61.0
55.2399 46.0
55.2603 58.0
55.2808 58.0
55.3012 61.0
55.3216 64.0
55.3421 55.0
55.3625 53.0
55.3829 53.0
55.4034 58.0
55.4238 66.0
55.4442 55.0
55.4647 49.0
55.4851 59.0
55.5055 59.0
55.526 62.0
55.5464 51.0
55.5668 59.0
55.5873 47.0
55.6077 54.0
55.6281 51.0
55.6486 44.0
55.669 61.0
55.6894 52.0
55.7099 51.0
55.7303 55.0
55.7507 61.0
55.7712 52.0
55.7916 48.0
55.812 50.0
55.8325 55.0
55.8529 47.0
55.8733 64.0
55.8938 67.0
55.9142 55.0
55.9346 61.0
55.9551 51.0
55.9755 63.0
55.9959 62.0
56.0164 60.0
56.0368 64.0
56.0572 53.0
56.0777 57.0
56.0981 56.0
56.1185 58.0
56.1389 54.0
56.1594 68.0
56.1798 68.0
56.2002 60.0
56.2207 57.0
56.2411 48.0
56.2615 56.0
56.282 56.0
56.3024 53.0
56.3228 60.0
56.3433 72.0
56.3637 56.0
56.3841 60.0
56.4046 52.0
56.425 66.0
56.4454 72.0
56.4659 61.0
56.4863 59.0
56.5067 58.0
56.5272 71.0
56.5476 57.0
56.568 67.0
56.5885 51.0
56.6089 67.0
56.6293 61.0
56.6498 62.0
56.6702 54.0
56.6906 48.0
56.7111 58.0
56.7315 57.0
56.7519 59.0
56.7724 66.0
56.7928 72.0
56.8132 64.0
56.8337 86.0
56.8541 73.0
56.8745 73.0
56.895 95.0
56.9154 79.0
56.9358 69.0
56.9563 77.0
56.9767 60.0
56.9971 51.0
57.0176 64.0
57.038 86.0
57.0584 77.0
57.0788 74.0
57.0993 59.0
57.1197 74.0
57.1401 73.0
57.1606 59.0
57.181 59.0
57.2014 40.0
57.2219 60.0
57.2423 53.0
57.2627 58.0
57.2832 65.0
57.3036 58.0
57.324 69.0
57.3445 68.0
57.3649 54.0
57.3853 56.0
57.4058 66.0
57.4262 43.0
57.4466 51.0
57.4671 63.0
57.4875 53.0
57.5079 55.0
57.5284 75.0
57.5488 63.0
57.5692 52.0
57.5897 58.0
57.6101 68.0
57.6305 51.0
57.651 57.0
57.6714 62.0
57.6918 64.0
57.7123 64.0
57.7327 71.0
57.7531 68.0
57.7736 78.0
57.794 67.0
57.8144 68.0
57.8349 91.0
57.8553 82.0
57.8757 80.0
57.8962 75.0
57.9166 88.0
57.937 64.0
57.9574 75.0
57.9779 87.0
57.9983 77.0
58.0187 60.0
58.0392 82.0
58.0596 51.0
58.08 55.0
58.1005 86.0
58.1209 74.0
58.1413 76.0
58.1618 62.0
58.1822 64.0
58.2026 67.0
58.2231 89.0
58.2435 73.0
58.2639 73.0
58.2844 58.0
58.3048 72.0
58.3252 56.0
58.3457 62.0
58.3661 58.0
58.3865 85.0
58.407 66.0
58.4274 78.0
58.4478 68.0
58.4683 66.0
58.4887 64.0
58.5091 58.0
58.5296 71.0
58.55 61.0
58.5704 63.0
58.5909 57.0
58.6113 60.0
58.6317 64.0
58.6522 70.0
58.6726 53.0
58.693 65.0
58.7135 65.0
58.7339 60.0
58.7543 58.0
58.7748 65.0
58.7952 57.0
58.8156 70.0
58.8361 61.0
58.8565 63.0
58.8769 68.0
58.8973 54.0
58.9178 60.0
58.9382 65.0
58.9586 69.0
58.9791 82.0
58.9995 71.0
59.0199 68.0
59.0404 62.0
59.0608 64.0
59.0812 72.0
59.1017 66.0
59.1221 69.0
59.1425 59.0
59.163 62.0
59.1834 64.0
59.2038 61.0
59.2243 76.0
59.2447 50.0
59.2651 65.0
59.2856 60.0
59.306 63.0
59.3264 53.0
59.3469 71.0
59.3673 64.0
59.3877 61.0
59.4082 69.0
59.4286 67.0
59.449 50.0
59.4695 64.0
59.4899 69.0
59.5103 64.0
59.5308 57.0
59.5512 71.0
59.5716 67.0
59.5921 78.0
59.6125 70.0
59.6329 84.0
59.6534 84.0
59.6738 72.0
59.6942 71.0
59.7147 81.0
59.7351 81.0
59.7555 86.0
59.7759 74.0
59.7964 71.0
59.8168 65.0
59.8372 74.0
59.8577 81.0
59.8781 72.0
59.8985 65.0
59.919 66.0
59.9394 69.0
59.9598 73.0
59.9803 66.0
60.0007 61.0
60.0211 64.0
60.0416 70.0
60.062 54.0
60.0824 68.0
60.1029 74.0
60.1233 56.0
60.1437 74.0
60.1642 66.0
60.1846 64.0
60.205 58.0
60.2255 55.0
60.2459 66.0
60.2663 58.0
60.2868 64.0
60.3072 77.0
60.3276 52.0
60.3481 74.0
60.3685 73.0
60.3889 58.0
60.4094 53.0
60.4298 75.0
60.4502 68.0
60.4707 62.0
60.4911 70.0
60.5115 61.0
60.532 54.0
60.5524 57.0
60.5728 62.0
60.5933 55.0
60.6137 72.0
60.6341 64.0
60.6546 51.0
60.675 55.0
60.6954 58.0
60.7158 65.0
60.7363 57.0
60.7567 63.0
60.7771 47.0
60.7976 68.0
60.818 71.0
60.8384 52.0
60.8589 57.0
60.8793 65.0
60.8997 62.0
60.9202 64.0
60.9406 70.0
60.961 81.0
60.9815 58.0
61.0019 62.0
61.0223 64.0
61.0428 62.0
61.0632 65.0
61.0836 52.0
61.1041 57.0
61.1245 85.0
61.1449 63.0
61.1654 58.0
61.1858 62.0
61.2062 84.0
61.2267 71.0
61.2471 58.0
61.2675 76.0
61.288 70.0
61.3084 56.0
61.3288 72.0
61.3493 79.0
61.3697 61.0
61.3901 57.0
61.4106 71.0
61.431 54.0
61.4514 61.0
61.4719 65.0
61.4923 60.0
61.5127 68.0
61.5332 70.0
61.5536 67.0
61.574 73.0
61.5945 68.0
61.6149 69.0
61.6353 62.0
61.6557 66.0
61.6762 77.0
61.6966 65.0
61.717 55.0
61.7375 60.0
61.7579 67.0
61.7783 67.0
61.7988 72.0
61.8192 57.0
61.8396 71.0
61.8601 74.0
61.8805 85.0
61.9009 74.0
61.9214 69.0
61.9418 60.0
61.9622 64.0
61.9827 72.0
62.0031 71.0
62.0235 82.0
62.044 63.0
62.0644 62.0
62.0848 97.0
62.1053 62.0
62.1257 75.0
62.1461 70.0
62.1666 82.0
62.187 67.0
62.2074 83.0
62.2279 82.0
62.2483 73.0
62.2687 89.0
62.2892 76.0
62.3096 81.0
62.33 85.0
62.3505 100.0
62.3709 83.0
62.3913 93.0
62.4118 91.0
62.4322 97.0
62.4526 82.0
62.4731 126.0
62.4935 112.0
62.5139 113.0
62.5343 121.0
62.5548 127.0
62.5752 113.0
62.5956 146.0
62.6161 131.0
62.6365 170.0
62.6569 212.0
62.6774 204.0
62.6978 213.0
62.7182 220.0
62.7387 250.0
62.7591 267.0
62.7795 325.0
62.8 353.0
62.8204 413.0
62.8408 408.0
62.8613 484.0
62.8817 566.0
62.9021 592.0
62.9226 630.0
62.943 694.0
62.9634 640.0
62.9839 759.0
63.0043 734.0
63.0247 673.0
63.0452 644.0
63.0656 587.0
63.086 596.0
63.1065 581.0
63.1269 515.0
63.1473 535.0
63.1678 492.0
63.1882 443.0
63.2086 407.0
63.2291 381.0
63.2495 318.0
63.2699 287.0
63.2904 269.0
63.3108 227.0
63.3312 202.0
63.3517 197.0
63.3721 190.0
63.3925 179.0
63.413 163.0
63.4334 122.0
63.4538 136.0
63.4742 141.0
63.4947 127.0
63.5151 144.0
63.5355 108.0
63.556 125.0
63.5764 110.0
63.5968 96.0
63.6173 93.0
63.6377 100.0
63.6581 102.0
63.6786 102.0
63.699 95.0
63.7194 103.0
63.7399 87.0
63.7603 87.0
63.7807 86.0
63.8012 83.0
63.8216 81.0
63.842 84.0
63.8625 81.0
63.8829 75.0
63.9033 80.0
63.9238 86.0
63.9442 60.0
63.9646 65.0
63.9851 75.0
64.0055 73.0
64.0259 62.0
64.0464 81.0
64.0668 67.0
64.0872 67.0
64.1077 61.0
64.1281 66.0
64.1485 69.0
64.169 64.0
64.1894 83.0
64.2098 69.0
64.2303 58.0
64.2507 82.0
64.2711 82.0
64.2916 70.0
64.312 66.0
64.3324 59.0
64.3528 59.0
64.3733 76.0
64.3937 65.0
64.4141 77.0
64.4346 68.0
64.455 78.0
64.4754 63.0
64.4959 62.0
64.5163 64.0
64.5367 55.0
64.5572 66.0
64.5776 62.0
64.598 79.0
64.6185 71.0
64.6389 63.0
64.6593 53.0
64.6798 57.0
64.7002 70.0
64.7206 75.0
64.7411 56.0
64.7615 77.0
64.7819 74.0
64.8024 52.0
64.8228 69.0
64.8432 85.0
64.8637 69.0
64.8841 68.0
64.9045 70.0
64.925 60.0
64.9454 59.0
64.9658 77.0
64.9863 59.0
65.0067 56.0
65.0271 51.0
65.0476 65.0
65.068 67.0
65.0884 58.0
65.1089 57.0
65.1293 68.0
65.1497 59.0
65.1702 54.0
65.1906 59.0
65.211 61.0
65.2315 62.0
65.2519 69.0
65.2723 50.0
65.2927 55.0
65.3132 72.0
65.3336 64.0
65.354 61.0
65.3745 61.0
65.3949 56.0
65.4153 72.0
65.4358 62.0
65.4562 54.0
65.4766 78.0
65.4971 78.0
65.5175 59.0
65.5379 57.0
65.5584 73.0
65.5788 66.0
65.5992 58.0
65.6197 66.0
65.6401 66.0
65.6605 60.0
65.681 72.0
65.7014 69.0
65.7218 75.0
65.7423 61.0
65.7627 58.0
65.7831 63.0
65.8036 77.0
65.824 63.0
65.8444 59.0
65.8649 56.0
65.8853 54.0
65.9057 73.0
65.9262 59.0
65.9466 53.0
65.967 45.0
65.9875 57.0
66.0079 66.0
66.0283 51.0
66.0488 55.0
66.0692 55.0
66.0896 66.0
66.1101 40.0
66.1305 82.0
66.1509 54.0
66.1714 58.0
66.1918 64.0
66.2122 52.0
66.2326 62.0
66.2531 45.0
66.2735 58.0
66.2939 53.0
66.3144 57.0
66.3348 54.0
66.3552 57.0
66.3757 47.0
66.3961 63.0
66.4165 73.0
66.437 80.0
66.4574 41.0
66.4778 72.0
66.4983 54.0
66.5187 64.0
66.5391 59.0
66.5596 59.0
66.58 54.0
66.6004 46.0
66.6209 68.0
66.6413 57.0
66.6617 60.0
66.6822 47.0
66.7026 65.0
66.723 51.0
66.7435 57.0
66.7639 63.0
66.7843 50.0
66.8048 60.0
66.8252 44.0
66.8456 60.0
66.8661 51.0
66.8865 55.0
66.9069 69.0
66.9274 66.0
66.9478 52.0
66.9682 62.0
66.9887 61.0
67.0091 55.0
67.0295 67.0
67.05 52.0
67.0704 62.0
67.0908 69.0
67.1112 53.0
67.1317 61.0
67.1521 75.0
67.1725 49.0
67.193 62.0
67.2134 49.0
67.2338 63.0
67.2543 48.0
67.2747 61.0
67.2951 64.0
67.3156 57.0
67.336 63.0
67.3564 51.0
67.3769 55.0
67.3973 55.0
67.4177 49.0
67.4382 67.0
67.4586 50.0
67.479 49.0
67.4995 62.0
67.5199 55.0
67.5403 60.0
67.5608 62.0
67.5812 53.0
67.6016 60.0
67.6221 57.0
67.6425 69.0
67.6629 59.0
67.6834 59.0
67.7038 71.0
67.7242 60.0
67.7447 66.0
67.7651 63.0
67.7855 55.0
67.806 47.0
67.8264 53.0
67.8468 67.0
67.8673 48.0
67.8877 55.0
67.9081 52.0
67.9286 46.0
67.949 57.0
67.9694 64.0
67.9899 55.0
68.0103 65.0
68.0307 44.0
68.0511 39.0
68.0716 56.0
68.092 56.0
68.1124 64.0
68.1329 47.0
68.1533 44.0
68.1737 66.0
68.1942 63.0
68.2146 60.0
68.235 81.0
68.2555 51.0
68.2759 55.0
68.2963 64.0
68.3168 58.0
68.3372 59.0
68.3576 52.0
68.3781 61.0
68.3985 57.0
68.4189 67.0
68.4394 51.0
68.4598 62.0
68.4802 58.0
68.5007 60.0
68.5211 53.0
68.5415 65.0
68.562 49.0
68.5824 57.0
68.6028 69.0
68.6233 52.0
68.6437 50.0
68.6641 42.0
68.6846 51.0
68.705 58.0
68.7254 51.0
68.7459 57.0
68.7663 58.0
68.7867 55.0
68.8072 70.0
68.8276 67.0
68.848 53.0
68.8685 60.0
68.8889 45.0
68.9093 50.0
68.9297 56.0
68.9502 50.0
68.9706 64.0
68.991 57.0
69.0115 54.0
69.0319 57.0
69.0523 63.0
69.0728 67.0
69.0932 48.0
69.1136 60.0
69.1341 52.0
69.1545 56.0
69.1749 62.0
69.1954 52.0
69.2158 54.0
69.2362 64.0
69.2567 60.0
69.2771 58.0
69.2975 60.0
69.318 62.0
69.3384 59.0
69.3588 37.0
69.3793 51.0
69.3997 48.0
69.4201 68.0
69.4406 60.0
69.461 89.0
69.4814 46.0
69.5019 59.0
69.5223 52.0
69.5427 61.0
69.5632 45.0
69.5836 58.0
69.604 70.0
69.6245 54.0
69.6449 51.0
69.6653 64.0
69.6858 52.0
69.7062 64.0
69.7266 62.0
69.7471 43.0
69.7675 57.0
69.7879 55.0
69.8084 61.0
69.8288 63.0
69.8492 49.0
69.8696 68.0
69.8901 44.0
69.9105 53.0
69.9309 56.0
69.9514 59.0
69.9718 46.0
69.9922 49.0
70.0127 66.0
70.0331 71.0
70.0535 59.0
70.074 47.0
70.0944 46.0
70.1148 52.0
70.1353 47.0
70.1557 46.0
70.1761 60.0
70.1966 63.0
70.217 45.0
70.2374 50.0
70.2579 39.0
70.2783 70.0
70.2987 55.0
70.3192 46.0
70.3396 42.0
70.36 63.0
70.3805 58.0
70.4009 56.0
70.4213 56.0
70.4418 50.0
70.4622 54.0
70.4826 72.0
70.5031 54.0
70.5235 56.0
70.5439 47.0
70.5644 51.0
70.5848 50.0
70.6052 47.0
70.6257 57.0
70.6461 51.0
70.6665 62.0
70.687 54.0
70.7074 50.0
70.7278 51.0
70.7483 54.0
70.7687 56.0
70.7891 57.0
70.8095 54.0
70.83 53.0
70.8504 66.0
70.8708 75.0
70.8913 52.0
70.9117 60.0
70.9321 50.0
70.9526 51.0
70.973 51.0
70.9934 52.0
71.0139 55.0
71.0343 57.0
71.0547 52.0
71.0752 51.0
71.0956 57.0
71.116 44.0
71.1365 56.0
71.1569 61.0
71.1773 45.0
71.1978 51.0
71.2182 53.0
71.2386 60.0
71.2591 50.0
71.2795 51.0
71.2999 45.0
71.3204 56.0
71.3408 64.0
71.3612 54.0
71.3817 48.0
71.4021 57.0
71.4225 57.0
71.443 50.0
71.4634 68.0
71.4838 63.0
71.5043 56.0
71.5247 63.0
71.5451 34.0
71.5656 60.0
71.586 55.0
71.6064 63.0
71.6269 56.0
71.6473 55.0
71.6677 63.0
71.6881 71.0
71.7086 47.0
71.729 47.0
71.7494 57.0
71.7699 64.0
71.7903 61.0
71.8107 57.0
71.8312 55.0
71.8516 71.0
71.872 57.0
71.8925 52.0
71.9129 51.0
71.9333 52.0
71.9538 50.0
71.9742 53.0
71.9946 38.0
72.0151 66.0
72.0355 70.0
72.0559 60.0
72.0764 63.0
72.0968 65.0
72.1172 57.0
72.1377 69.0
72.1581 51.0
72.1785 50.0
72.199 65.0
72.2194 56.0
72.2398 52.0
72.2603 53.0
72.2807 63.0
72.3011 63.0
72.3216 59.0
72.342 61.0
72.3624 51.0
72.3829 52.0
72.4033 57.0
72.4237 60.0
72.4442 61.0
72.4646 51.0
72.485 53.0
72.5055 64.0
72.5259 58.0
72.5463 54.0
72.5668 54.0
72.5872 54.0
72.6076 60.0
72.628 53.0
72.6485 59.0
72.6689 61.0
72.6893 51.0
72.7098 45.0
72.7302 64.0
72.7506 56.0
72.7711 76.0
72.7915 59.0
72.8119 44.0
72.8324 67.0
72.8528 31.0
72.8732 63.0
72.8937 55.0
72.9141 44.0
72.9345 46.0
72.955 67.0
72.9754 37.0
72.9958 55.0
73.0163 64.0
73.0367 62.0
73.0571 57.0
73.0776 56.0
73.098 59.0
73.1184 60.0
73.1389 50.0
73.1593 68.0
73.1797 52.0
73.2002 59.0
73.2206 46.0
73.241 54.0
73.2615 62.0
73.2819 65.0
73.3023 76.0
73.3228 66.0
73.3432 56.0
73.3636 64.0
73.3841 59.0
73.4045 51.0
73.4249 67.0
73.4454 56.0
73.4658 54.0
73.4862 42.0
73.5066 54.0
73.5271 48.0
73.5475 47.0
73.5679 56.0
73.5884 72.0
73.6088 57.0
73.6292 54.0
73.6497 60.0
73.6701 68.0
73.6905 71.0
73.711 63.0
73.7314 54.0
73.7518 56.0
73.7723 65.0
73.7927 66.0
73.8131 57.0
73.8336 60.0
73.854 51.0
73.8744 78.0
73.8949 57.0
73.9153 65.0
73.9357 53.0
73.9562 63.0
73.9766 75.0
73.997 59.0
74.0175 60.0
74.0379 55.0
74.0583 57.0
74.0788 81.0
74.0992 66.0
74.1196 72.0
74.1401 63.0
74.1605 69.0
74.1809 59.0
74.2014 66.0
74.2218 56.0
74.2422 66.0
74.2627 54.0
74.2831 61.0
74.3035 52.0
74.324 54.0
74.3444 62.0
74.3648 72.0
74.3853 67.0
74.4057 65.0
74.4261 64.0
74.4465 70.0
74.467 57.0
74.4874 62.0
74.5078 73.0
74.5283 63.0
74.5487 66.0
74.5691 56.0
74.5896 71.0
74.61 63.0
74.6304 58.0
74.6509 55.0
74.6713 60.0
74.6917 49.0
74.7122 73.0
74.7326 65.0
74.753 65.0
74.7735 59.0
74.7939 66.0
74.8143 80.0
74.8348 67.0
74.8552 71.0
74.8756 47.0
74.8961 75.0
74.9165 51.0
74.9369 70.0
74.9574 77.0
74.9778 73.0
74.9982 79.0
75.0187 78.0
75.0391 78.0
75.0595 84.0
75.08 86.0
75.1004 88.0
75.1208 92.0
75.1413 96.0
75.1617 95.0
75.1821 114.0
75.2026 94.0
75.223 118.0
75.2434 138.0
75.2639 129.0
75.2843 142.0
75.3047 145.0
75.3252 165.0
75.3456 179.0
75.366 195.0
75.3864 229.0
75.4069 214.0
75.4273 272.0
75.4477 259.0
75.4682 299.0
75.4886 273.0
75.509 265.0
75.5295 271.0
75.5499 249.0
75.5703 248.0
75.5908 233.0
75.6112 267.0
75.6316 221.0
75.6521 225.0
75.6725 208.0
75.6929 202.0
75.7134 194.0
75.7338 194.0
75.7542 197.0
75.7747 138.0
75.7951 154.0
75.8155 150.0
75.836 138.0
75.8564 133.0
75.8768 125.0
75.8973 103.0
75.9177 93.0
75.9381 110.0
75.9586 78.0
75.979 92.0
75.9994 77.0
76.0199 78.0
76.0403 83.0
76.0607 84.0
76.0812 86.0
76.1016 79.0
76.122 66.0
76.1425 62.0
76.1629 73.0
76.1833 66.0
76.2038 70.0
76.2242 72.0
76.2446 67.0
76.265 65.0
76.2855 61.0
76.3059 67.0
76.3263 60.0
76.3468 63.0
76.3672 56.0
76.3876 53.0
76.4081 57.0
76.4285 69.0
76.4489 54.0
76.4694 66.0
76.4898 65.0
76.5102 53.0
76.5307 61.0
76.5511 62.0
76.5715 56.0
76.592 55.0
76.6124 78.0
76.6328 57.0
76.6533 58.0
76.6737 50.0
76.6941 47.0
76.7146 68.0
76.735 60.0
76.7554 69.0
76.7759 63.0
76.7963 50.0
76.8167 45.0
76.8372 54.0
76.8576 68.0
76.878 77.0
76.8985 55.0
76.9189 61.0
76.9393 46.0
76.9598 62.0
76.9802 67.0
77.0006 57.0
77.0211 63.0
77.0415 63.0
77.0619 58.0
77.0824 58.0
77.1028 57.0
77.1232 66.0
77.1437 60.0
77.1641 69.0
77.1845 54.0
77.2049 77.0
77.2254 62.0
77.2458 62.0
77.2662 60.0
77.2867 52.0
77.3071 69.0
77.3275 62.0
77.348 59.0
77.3684 64.0
77.3888 69.0
77.4093 44.0
77.4297 47.0
77.4501 61.0
77.4706 65.0
77.491 63.0
77.5114 65.0
77.5319 66.0
77.5523 52.0
77.5727 57.0
77.5932 53.0
77.6136 61.0
77.634 42.0
77.6545 54.0
77.6749 54.0
77.6953 58.0
77.7158 62.0
77.7362 58.0
77.7566 55.0
77.7771 43.0
77.7975 64.0
77.8179 56.0
77.8384 60.0
77.8588 60.0
77.8792 66.0
77.8997 51.0
77.9201 57.0
77.9405 49.0
77.961 59.0
77.9814 66.0
78.0018 53.0
78.0223 70.0
78.0427 50.0
78.0631 61.0
78.0835 65.0
78.104 63.0
78.1244 60.0
78.1448 56.0
78.1653 50.0
78.1857 49.0
78.2061 62.0
78.2266 54.0
78.247 59.0
78.2674 50.0
78.2879 50.0
78.3083 55.0
78.3287 71.0
78.3492 54.0
78.3696 53.0
78.39 54.0
78.4105 46.0
78.4309 50.0
78.4513 46.0
78.4718 49.0
78.4922 59.0
78.5126 60.0
78.5331 64.0
78.5535 66.0
78.5739 59.0
78.5944 62.0
78.6148 56.0
78.6352 57.0
78.6557 58.0
78.6761 64.0
78.6965 69.0
78.717 50.0
78.7374 66.0
78.7578 59.0
78.7783 58.0
78.7987 62.0
78.8191 59.0
78.8396 75.0
78.86 68.0
78.8804 71.0
78.9009 72.0
78.9213 72.0
78.9417 78.0
78.9622 69.0
78.9826 67.0
79.003 70.0
79.0234 73.0
79.0439 75.0
79.0643 101.0
79.0847 80.0
79.1052 105.0
79.1256 59.0
79.146 93.0
79.1665 90.0
79.1869 98.0
79.2073 103.0
79.2278 122.0
79.2482 120.0
79.2686 124.0
79.2891 128.0
79.3095 134.0
79.3299 132.0
79.3504 167.0
79.3708 164.0
79.3912 170.0
79.4117 173.0
79.4321 187.0
79.4525 157.0
79.473 192.0
79.4934 174.0
79.5138 169.0
79.5343 159.0
79.5547 165.0
79.5751 174.0
79.5956 186.0
79.616 172.0
79.6364 161.0
79.6569 151.0
79.6773 168.0
79.6977 149.0
79.7182 151.0
79.7386 143.0
79.759 101.0
79.7795 103.0
79.7999 103.0
79.8203 123.0
79.8408 119.0
79.8612 102.0
79.8816 102.0
79.9021 96.0
79.9225 92.0
79.9429 88.0
79.9633 88.0
79.9838 79.0
80.0042 66.0
80.0246 62.0
80.0451 97.0
80.0655 70.0
80.0859 78.0
80.1064 69.0
80.1268 67.0
80.1472 77.0
80.1677 71.0
80.1881 61.0
80.2085 57.0
80.229 61.0
80.2494 67.0
80.2698 63.0
80.2903 59.0
80.3107 89.0
80.3311 66.0
80.3516 54.0
80.372 66.0
80.3924 57.0
80.4129 58.0
80.4333 56.0
80.4537 74.0
80.4742 52.0
80.4946 51.0
80.515 62.0
80.5355 54.0
80.5559 57.0
80.5763 47.0
80.5968 54.0
80.6172 67.0
80.6376 62.0
80.6581 64.0
80.6785 62.0
80.6989 57.0
80.7194 68.0
80.7398 53.0
80.7602 72.0
80.7807 58.0
80.8011 60.0
80.8215 54.0
80.8419 43.0
80.8624 70.0
80.8828 60.0
80.9032 70.0
80.9237 65.0
80.9441 62.0
80.9645 63.0
80.985 63.0
81.0054 65.0
81.0258 43.0
81.0463 47.0
81.0667 44.0
81.0871 71.0
81.1076 65.0
81.128 60.0
81.1484 60.0
81.1689 58.0
81.1893 73.0
81.2097 74.0
81.2302 39.0
81.2506 59.0
81.271 53.0
81.2915 55.0
81.3119 61.0
81.3323 65.0
81.3528 62.0
81.3732 47.0
81.3936 61.0
81.4141 54.0
81.4345 53.0
81.4549 57.0
81.4754 59.0
81.4958 52.0
81.5162 68.0
81.5367 52.0
81.5571 61.0
81.5775 61.0
81.598 57.0
81.6184 68.0
81.6388 65.0
81.6593 61.0
81.6797 55.0
81.7001 68.0
81.7206 47.0
81.741 49.0
81.7614 59.0
81.7818 54.0
81.8023 58.0
81.8227 49.0
81.8431 51.0
81.8636 48.0
81.884 64.0
81.9044 62.0
81.9249 49.0
81.9453 66.0
81.9657 58.0
81.9862 59.0
82.0066 57.0
82.027 59.0
82.0475 41.0
82.0679 43.0
82.0883 60.0
82.1088 64.0
82.1292 77.0
82.1496 45.0
82.1701 63.0
82.1905 61.0
82.2109 53.0
82.2314 66.0
82.2518 49.0
82.2722 51.0
82.2927 50.0
82.3131 50.0
82.3335 62.0
82.354 57.0
82.3744 40.0
82.3948 57.0
82.4153 69.0
82.4357 56.0
82.4561 61.0
82.4766 50.0
82.497 65.0
82.5174 41.0
82.5379 57.0
82.5583 49.0
82.5787 56.0
82.5992 64.0
82.6196 48.0
82.64 55.0
82.6604 61.0
82.6809 56.0
82.7013 51.0
82.7217 62.0
82.7422 42.0
82.7626 53.0
82.783 57.0
82.8035 60.0
82.8239 59.0
82.8443 63.0
82.8648 52.0
82.8852 53.0
82.9056 46.0
82.9261 51.0
82.9465 53.0
82.9669 55.0
82.9874 61.0
83.0078 55.0
83.0282 60.0
83.0487 67.0
83.0691 55.0
83.0895 65.0
83.11 58.0
83.1304 61.0
83.1508 55.0
83.1713 48.0
83.1917 63.0
83.2121 61.0
83.2326 67.0
83.253 50.0
83.2734 66.0
83.2939 50.0
83.3143 54.0
83.3347 42.0
83.3552 47.0
83.3756 55.0
83.396 55.0
83.4165 61.0
83.4369 62.0
83.4573 59.0
83.4778 49.0
83.4982 50.0
83.5186 52.0
83.5391 48.0
83.5595 58.0
83.5799 54.0
83.6003 51.0
83.6208 64.0
83.6412 47.0
83.6616 50.0
83.6821 61.0
83.7025 54.0
83.7229 42.0
83.7434 58.0
83.7638 57.0
83.7842 50.0
83.8047 59.0
83.8251 56.0
83.8455 51.0
83.866 47.0
83.8864 42.0
83.9068 61.0
83.9273 57.0
83.9477 50.0
83.9681 52.0
83.9886 64.0
84.009 48.0
84.0294 50.0
84.0499 47.0
84.0703 38.0
84.0907 56.0
84.1112 44.0
84.1316 55.0
84.152 60.0
84.1725 57.0
84.1929 45.0
84.2133 49.0
84.2338 53.0
84.2542 78.0
84.2746 65.0
84.2951 45.0
84.3155 50.0
84.3359 56.0
84.3564 66.0
84.3768 55.0
84.3972 51.0
84.4177 56.0
84.4381 52.0
84.4585 54.0
84.4789 68.0
84.4994 43.0
84.5198 52.0
84.5402 55.0
84.5607 57.0
84.5811 57.0
84.6015 60.0
84.622 48.0
84.6424 48.0
84.6628 36.0
84.6833 38.0
84.7037 55.0
84.7241 57.0
84.7446 56.0
84.765 60.0
84.7854 50.0
84.8059 52.0
84.8263 53.0
84.8467 36.0
84.8672 64.0
84.8876 58.0
84.908 40.0
84.9285 39.0
84.9489 56.0
84.9693 63.0
84.9898 65.0
85.0102 40.0
85.0306 63.0
85.0511 68.0
85.0715 43.0
85.0919 47.0
85.1124 41.0
85.1328 42.0
85.1532 62.0
85.1737 50.0
85.1941 54.0
85.2145 61.0
85.235 55.0
85.2554 53.0
85.2758 54.0
85.2963 59.0
85.3167 52.0
85.3371 47.0
85.3576 55.0
85.378 47.0
85.3984 43.0
85.4188 50.0
85.4393 39.0
85.4597 58.0
85.4801 49.0
85.5006 49.0
85.521 54.0
85.5414 63.0
85.5619 56.0
85.5823 59.0
85.6027 54.0
85.6232 57.0
85.6436 47.0
85.664 44.0
85.6845 57.0
85.7049 49.0
85.7253 45.0
85.7458 47.0
85.7662 53.0
85.7866 70.0
85.8071 52.0
85.8275 63.0
85.8479 46.0
85.8684 47.0
85.8888 41.0
85.9092 59.0
85.9297 71.0
85.9501 54.0
85.9705 54.0
85.991 57.0
86.0114 48.0
86.0318 53.0
86.0523 74.0
86.0727 64.0
86.0931 57.0
86.1136 58.0
86.134 55.0
86.1544 67.0
86.1749 57.0
86.1953 46.0
86.2157 58.0
86.2362 64.0
86.2566 60.0
86.277 69.0
86.2975 61.0
86.3179 53.0
86.3383 49.0
86.3587 52.0
86.3792 51.0
86.3996 68.0
86.42 70.0
86.4405 62.0
86.4609 53.0
86.4813 64.0
86.5018 58.0
86.5222 63.0
86.5426 54.0
86.5631 57.0
86.5835 62.0
86.6039 65.0
86.6244 46.0
86.6448 56.0
86.6652 57.0
86.6857 62.0
86.7061 64.0
86.7265 66.0
86.747 62.0
86.7674 55.0
86.7878 67.0
86.8083 48.0
86.8287 53.0
86.8491 60.0
86.8696 54.0
86.89 55.0
86.9104 41.0
86.9309 57.0
86.9513 39.0
86.9717 49.0
86.9922 54.0
87.0126 55.0
87.033 61.0
87.0535 58.0
87.0739 60.0
87.0943 54.0
87.1148 50.0
87.1352 49.0
87.1556 53.0
87.1761 65.0
87.1965 57.0
87.2169 53.0
87.2373 46.0
87.2578 50.0
87.2782 52.0
87.2986 57.0
87.3191 64.0
87.3395 50.0
87.3599 59.0
87.3804 59.0
87.4008 52.0
87.4212 54.0
87.4417 60.0
87.4621 49.0
87.4825 60.0
87.503 64.0
87.5234 46.0
87.5438 68.0
87.5643 55.0
87.5847 49.0
87.6051 71.0
87.6256 56.0
87.646 64.0
87.6664 40.0
87.6869 55.0
87.7073 43.0
87.7277 48.0
87.7482 55.0
87.7686 55.0
87.789 70.0
87.8095 65.0
87.8299 52.0
87.8503 51.0
87.8708 53.0
87.8912 41.0
87.9116 58.0
87.9321 58.0
87.9525 63.0
87.9729 63.0
87.9934 49.0
88.0138 48.0
88.0342 47.0
88.0547 53.0
88.0751 51.0
88.0955 64.0
88.116 49.0
88.1364 55.0
88.1568 52.0
88.1772 49.0
88.1977 35.0
88.2181 62.0
88.2385 44.0
88.259 65.0
88.2794 56.0
88.2998 62.0
88.3203 52.0
88.3407 51.0
88.3611 66.0
88.3816 40.0
88.402 61.0
88.4224 71.0
88.4429 64.0
88.4633 57.0
88.4837 60.0
88.5042 53.0
88.5246 68.0
88.545 45.0
88.5655 53.0
88.5859 54.0
88.6063 65.0
88.6268 50.0
88.6472 65.0
88.6676 57.0
88.6881 54.0
88.7085 57.0
88.7289 40.0
88.7494 62.0
88.7698 47.0
88.7902 53.0
88.8107 54.0
88.8311 57.0
88.8515 53.0
88.872 53.0
88.8924 60.0
88.9128 56.0
88.9333 55.0
88.9537 56.0
88.9741 52.0
88.9946 54.0
89.015 52.0
89.0354 54.0
89.0558 63.0
89.0763 45.0
89.0967 61.0
89.1171 51.0
89.1376 58.0
89.158 51.0
89.1784 52.0
89.1989 34.0
89.2193 47.0
89.2397 53.0
89.2602 41.0
89.2806 60.0
89.301 56.0
89.3215 54.0
89.3419 48.0
89.3623 58.0
89.3828 38.0
89.4032 48.0
89.4236 44.0
89.4441 54.0
89.4645 51.0
89.4849 54.0
89.5054 56.0
89.5258 56.0
89.5462 54.0
89.5667 56.0
89.5871 50.0
89.6075 46.0
89.628 55.0
89.6484 61.0
89.6688 62.0
89.6893 57.0
89.7097 60.0
89.7301 57.0
89.7506 52.0
89.771 54.0
89.7914 55.0
89.8119 45.0
89.8323 45.0
89.8527 49.0
89.8732 58.0
89.8936 41.0
89.914 43.0
89.9345 45.0
89.9549 46.0
89.9753 42.0
89.9957 48.0
90.0162 50.0
90.0366 63.0
90.057 49.0
90.0775 64.0
90.0979 46.0
