9.9 69.0
9.9204 84.0
9.9409 73.0
9.9613 69.0
9.9817 67.0
10.0022 84.0
10.0226 77.0
10.043 89.0
10.0635 81.0
10.0839 84.0
10.1043 83.0
10.1248 65.0
10.1452 71.0
10.1656 84.0
10.1861 48.0
10.2065 80.0
10.2269 75.0
10.2474 67.0
10.2678 64.0
10.2882 76.0
10.3087 68.0
10.3291 81.0
10.3495 68.0
10.3699 61.0
10.3904 74.0
10.4108 72.0
10.4312 53.0
10.4517 86.0
10.4721 61.0
10.4925 68.0
10.513 74.0
10.5334 86.0
10.5538 59.0
10.5743 62.0
10.5947 63.0
10.6151 76.0
10.6356 55.0
10.656 76.0
10.6764 67.0
10.6969 56.0
10.7173 61.0
10.7377 71.0
10.7582 69.0
10.7786 54.0
10.799 62.0
10.8195 51.0
10.8399 59.0
10.8603 77.0
10.8808 61.0
10.9012 74.0
10.9216 69.0
10.9421 64.0
10.9625 75.0
10.9829 52.0
11.0034 58.0
11.0238 60.0
11.0442 69.0
11.0647 52.0
11.0851 77.0
11.1055 66.0
11.126 48.0
11.1464 63.0
11.1668 54.0
11.1873 50.0
11.2077 62.0
11.2281 67.0
11.2486 49.0
11.269 61.0
11.2894 54.0
11.3098 71.0
11.3303 63.0
11.3507 65.0
11.3711 57.0
11.3916 64.0
11.412 56.0
11.4324 77.0
11.4529 63.0
11.4733 56.0
11.4937 63.0
11.5142 65.0
11.5346 42.0
11.555 53.0
11.5755 52.0
11.5959 52.0
11.6163 52.0
11.6368 57.0
11.6572 66.0
11.6776 52.0
11.6981 66.0
11.7185 61.0
11.7389 60.0
11.7594 54.0
11.7798 55.0
11.8002 64.0
11.8207 40.0
11.8411 66.0
11.8615 51.0
11.882 52.0
11.9024 53.0
11.9228 61.0
11.9433 50.0
11.9637 64.0
11.9841 59.0
12.0046 61.0
12.025 54.0
12.0454 65.0
12.0659 51.0
12.0863 64.0
12.1067 44.0
12.1272 54.0
12.1476 53.0
12.168 35.0
12.1884 53.0
12.2089 43.0
12.2293 51.0
12.2497 51.0
12.2702 52.0
12.2906 38.0
12.311 62.0
12.3315 63.0
12.3519 38.0
12.3723 45.0
12.3928 52.0
12.4132 47.0
12.4336 44.0
12.4541 49.0
12.4745 67.0
12.4949 49.0
12.5154 49.0
12.5358 47.0
12.5562 45.0
12.5767 62.0
12.5971 50.0
12.6175 41.0
12.638 36.0
12.6584 47.0
12.6788 45.0
12.6993 59.0
12.7197 47.0
12.7401 54.0
12.7606 54.0
12.781 52.0
12.8014 49.0
12.8219 30.0
12.8423 55.0
12.8627 46.0
12.8832 37.0
12.9036 38.0
12.924 56.0
12.9445 46.0
12.9649 51.0
12.9853 49.0
13.0058 33.0
13.0262 40.0
13.0466 60.0
13.0671 51.0
13.0875 48.0
13.1079 46.0
13.1283 39.0
13.1488 42.0
13.1692 47.0
13.1896 67.0
13.2101 41.0
13.2305 47.0
13.2509 49.0
13.2714 51.0
13.2918 47.0
13.3122 53.0
13.3327 46.0
13.3531 43.0
13.3735 40.0
13.394 47.0
13.4144 53.0
13.4348 47.0
13.4553 46.0
13.4757 49.0
13.4961 39.0
13.5166 47.0
13.537 46.0
13.5574 39.0
13.5779 51.0
13.5983 33.0
13.6187 42.0
13.6392 25.0
13.6596 40.0
13.68 43.0
13.7005 48.0
13.7209 37.0
13.7413 42.0
13.7618 34.0
13.7822 40.0
13.8026 35.0
13.8231 48.0
13.8435 37.0
13.8639 34.0
13.8844 33.0
13.9048 34.0
13.9252 34.0
13.9457 44.0
13.9661 39.0
13.9865 36.0
14.007 28.0
14.0274 37.0
14.0478 45.0
14.0682 58.0
14.0887 47.0
14.1091 50.0
14.1295 42.0
14.15 39.0
14.1704 32.0
14.1908 41.0
14.2113 40.0
14.2317 33.0
14.2521 35.0
14.2726 38.0
14.293 48.0
14.3134 37.0
14.3339 35.0
14.3543 28.0
14.3747 39.0
14.3952 27.0
14.4156 52.0
14.436 41.0
14.4565 44.0
14.4769 38.0
14.4973 40.0
14.5178 28.0
14.5382 37.0
14.5586 29.0
14.5791 39.0
14.5995 33.0
14.6199 33.0
14.6404 27.0
14.6608 38.0
14.6812 25.0
14.7017 38.0
14.7221 23.0
14.7425 30.0
14.763 40.0
14.7834 32.0
14.8038 31.0
14.8243 30.0
14.8447 42.0
14.8651 36.0
14.8856 48.0
14.906 46.0
14.9264 35.0
14.9468 41.0
14.9673 32.0
14.9877 41.0
15.0081 42.0
15.0286 37.0
15.049 41.0
15.0694 35.0
15.0899 39.0
15.1103 36.0
15.1307 30.0
15.1512 30.0
15.1716 40.0
15.192 38.0
15.2125 30.0
15.2329 30.0
15.2533 34.0
15.2738 29.0
15.2942 24.0
15.3146 34.0
15.3351 29.0
15.3555 35.0
15.3759 44.0
15.3964 26.0
15.4168 46.0
15.4372 35.0
15.4577 48.0
15.4781 40.0
15.4985 25.0
15.519 39.0
15.5394 31.0
15.5598 33.0
15.5803 36.0
15.6007 27.0
15.6211 23.0
15.6416 33.0
15.662 33.0
15.6824 29.0
15.7029 25.0
15.7233 29.0
15.7437 32.0
15.7642 28.0
15.7846 30.0
15.805 29.0
15.8255 38.0
15.8459 24.0
15.8663 32.0
15.8867 33.0
15.9072 29.0
15.9276 35.0
15.948 27.0
15.9685 28.0
15.9889 32.0
16.0093 37.0
16.0298 39.0
16.0502 45.0
16.0706 32.0
16.0911 25.0
16.1115 22.0
16.1319 38.0
16.1524 30.0
16.1728 34.0
16.1932 31.0
16.2137 25.0
16.2341 22.0
16.2545 28.0
16.275 29.0
16.2954 24.0
16.3158 19.0
16.3363 36.0
16.3567 31.0
16.3771 33.0
16.3976 26.0
16.418 21.0
16.4384 24.0
16.4589 28.0
16.4793 26.0
16.4997 30.0
16.5202 34.0
16.5406 25.0
16.561 28.0
16.5815 35.0
16.6019 28.0
16.6223 35.0
16.6428 23.0
16.6632 28.0
16.6836 34.0
16.7041 18.0
16.7245 24.0
16.7449 27.0
16.7653 30.0
16.7858 22.0
16.8062 29.0
16.8266 25.0
16.8471 32.0
16.8675 28.0
16.8879 30.0
16.9084 31.0
16.9288 27.0
16.9492 35.0
16.9697 32.0
16.9901 34.0
17.0105 21.0
17.031 35.0
17.0514 20.0
17.0718 32.0
17.0923 20.0
17.1127 24.0
17.1331 37.0
17.1536 24.0
17.174 24.0
17.1944 31.0
17.2149 36.0
17.2353 29.0
17.2557 32.0
17.2762 25.0
17.2966 33.0
17.317 37.0
17.3375 28.0
17.3579 31.0
17.3783 22.0
17.3988 17.0
17.4192 32.0
17.4396 31.0
17.4601 27.0
17.4805 27.0
17.5009 23.0
17.5214 19.0
17.5418 24.0
17.5622 19.0
17.5827 25.0
17.6031 32.0
17.6235 26.0
17.644 28.0
17.6644 31.0
17.6848 34.0
17.7052 27.0
17.7257 34.0
17.7461 42.0
17.7665 21.0
17.787 29.0
17.8074 28.0
17.8278 23.0
17.8483 27.0
17.8687 31.0
17.8891 31.0
17.9096 40.0
17.93 30.0
17.9504 21.0
17.9709 19.0
17.9913 37.0
18.0117 26.0
18.0322 32.0
18.0526 25.0
18.073 17.0
18.0935 28.0
18.1139 18.0
18.1343 27.0
18.1548 26.0
18.1752 18.0
18.1956 23.0
18.2161 25.0
18.2365 22.0
18.2569 32.0
18.2774 24.0
18.2978 22.0
18.3182 27.0
18.3387 25.0
18.3591 26.0
18.3795 26.0
18.4 30.0
18.4204 21.0
18.4408 20.0
18.4613 29.0
18.4817 30.0
18.5021 24.0
18.5226 27.0
18.543 26.0
18.5634 27.0
18.5839 31.0
18.6043 30.0
18.6247 25.0
18.6451 30.0
18.6656 21.0
18.686 24.0
18.7064 28.0
18.7269 22.0
18.7473 20.0
18.7677 19.0
18.7882 22.0
18.8086 22.0
18.829 24.0
18.8495 24.0
18.8699 28.0
18.8903 25.0
18.9108 18.0
18.9312 18.0
18.9516 28.0
18.9721 37.0
18.9925 28.0
19.0129 30.0
19.0334 29.0
19.0538 24.0
19.0742 22.0
19.0947 34.0
19.1151 26.0
19.1355 18.0
19.156 31.0
19.1764 28.0
19.1968 14.0
19.2173 22.0
19.2377 16.0
19.2581 21.0
19.2786 18.0
19.299 26.0
19.3194 27.0
19.3399 23.0
19.3603 24.0
19.3807 19.0
19.4012 27.0
19.4216 26.0
19.442 19.0
19.4625 19.0
19.4829 19.0
19.5033 16.0
19.5237 17.0
19.5442 18.0
19.5646 19.0
19.585 27.0
19.6055 22.0
19.6259 24.0
19.6463 18.0
19.6668 21.0
19.6872 21.0
19.7076 23.0
19.7281 20.0
19.7485 22.0
19.7689 20.0
19.7894 19.0
19.8098 30.0
19.8302 21.0
19.8507 25.0
19.8711 14.0
19.8915 22.0
19.912 20.0
19.9324 28.0
19.9528 17.0
19.9733 18.0
19.9937 12.0
20.0141 28.0
20.0346 21.0
20.055 22.0
20.0754 28.0
20.0959 33.0
20.1163 22.0
20.1367 19.0
20.1572 25.0
20.1776 19.0
20.198 18.0
20.2185 27.0
20.2389 21.0
20.2593 20.0
20.2798 25.0
20.3002 25.0
20.3206 31.0
20.3411 25.0
20.3615 20.0
20.3819 33.0
20.4024 26.0
20.4228 30.0
20.4432 23.0
20.4636 23.0
20.4841 21.0
20.5045 18.0
20.5249 19.0
20.5454 24.0
20.5658 28.0
20.5862 19.0
20.6067 20.0
20.6271 10.0
20.6475 19.0
20.668 17.0
20.6884 28.0
20.7088 17.0
20.7293 24.0
20.7497 17.0
20.7701 24.0
20.7906 23.0
20.811 26.0
20.8314 22.0
20.8519 22.0
20.8723 25.0
20.8927 26.0
20.9132 13.0
20.9336 33.0
20.954 10.0
20.9745 25.0
20.9949 15.0
21.0153 15.0
21.0358 21.0
21.0562 16.0
21.0766 23.0
21.0971 33.0
21.1175 21.0
21.1379 22.0
21.1584 26.0
21.1788 16.0
21.1992 29.0
21.2197 20.0
21.2401 26.0
21.2605 25.0
21.281 18.0
21.3014 21.0
21.3218 16.0
21.3422 16.0
21.3627 26.0
21.3831 27.0
21.4035 27.0
21.424 22.0
21.4444 29.0
21.4648 17.0
21.4853 29.0
21.5057 54.0
21.5261 58.0
21.5466 72.0
21.567 144.0
21.5874 194.0
21.6079 217.0
21.6283 232.0
21.6487 199.0
21.6692 185.0
21.6896 155.0
21.71 115.0
21.7305 118.0
21.7509 95.0
21.7713 77.0
21.7918 73.0
21.8122 56.0
21.8326 48.0
21.8531 35.0
21.8735 26.0
21.8939 32.0
21.9144 22.0
21.9348 27.0
21.9552 17.0
21.9757 22.0
21.9961 27.0
22.0165 18.0
22.037 32.0
22.0574 17.0
22.0778 20.0
22.0983 19.0
22.1187 34.0
22.1391 22.0
22.1596 13.0
22.18 14.0
22.2004 26.0
22.2209 23.0
22.2413 16.0
22.2617 27.0
22.2821 11.0
22.3026 21.0
22.323 22.0
22.3434 26.0
22.3639 20.0
22.3843 22.0
22.4047 25.0
22.4252 22.0
22.4456 19.0
22.466 21.0
22.4865 26.0
22.5069 15.0
22.5273 14.0
22.5478 15.0
22.5682 22.0
22.5886 20.0
22.6091 19.0
22.6295 19.0
22.6499 14.0
22.6704 16.0
22.6908 26.0
22.7112 23.0
22.7317 18.0
22.7521 20.0
22.7725 17.0
22.793 22.0
22.8134 17.0
22.8338 11.0
22.8543 22.0
22.8747 22.0
22.8951 20.0
22.9156 17.0
22.936 20.0
22.9564 16.0
22.9769 27.0
22.9973 14.0
23.0177 18.0
23.0382 20.0
23.0586 21.0
23.079 19.0
23.0995 16.0
23.1199 17.0
23.1403 21.0
23.1608 21.0
23.1812 22.0
23.2016 17.0
23.222 21.0
23.2425 16.0
23.2629 20.0
23.2833 20.0
23.3038 23.0
23.3242 23.0
23.3446 13.0
23.3651 15.0
23.3855 17.0
23.4059 27.0
23.4264 18.0
23.4468 19.0
23.4672 18.0
23.4877 18.0
23.5081 15.0
23.5285 20.0
23.549 25.0
23.5694 15.0
23.5898 23.0
23.6103 25.0
23.6307 25.0
23.6511 30.0
23.6716 36.0
23.692 40.0
23.7124 40.0
23.7329 40.0
23.7533 49.0
23.7737 35.0
23.7942 39.0
23.8146 20.0
23.835 32.0
23.8555 24.0
23.8759 23.0
23.8963 26.0
23.9168 20.0
23.9372 25.0
23.9576 21.0
23.9781 23.0
23.9985 14.0
24.0189 20.0
24.0394 19.0
24.0598 27.0
24.0802 18.0
24.1006 16.0
24.1211 24.0
24.1415 22.0
24.1619 15.0
24.1824 19.0
24.2028 18.0
24.2232 20.0
24.2437 17.0
24.2641 16.0
24.2845 22.0
24.305 20.0
24.3254 19.0
24.3458 23.0
24.3663 22.0
24.3867 26.0
24.4071 18.0
24.4276 25.0
24.448 31.0
24.4684 52.0
24.4889 57.0
24.5093 60.0
24.5297 50.0
24.5502 45.0
24.5706 39.0
24.591 33.0
24.6115 42.0
24.6319 32.0
24.6523 38.0
24.6728 29.0
24.6932 24.0
24.7136 31.0
24.7341 29.0
24.7545 22.0
24.7749 28.0
24.7954 25.0
24.8158 23.0
24.8362 21.0
24.8567 17.0
24.8771 20.0
24.8975 27.0
24.918 29.0
24.9384 26.0
24.9588 24.0
24.9793 22.0
24.9997 29.0
25.0201 30.0
25.0405 23.0
25.061 28.0
25.0814 17.0
25.1018 31.0
25.1223 34.0
25.1427 27.0
25.1631 24.0
25.1836 25.0
25.204 31.0
25.2244 36.0
25.2449 30.0
25.2653 35.0
25.2857 32.0
25.3062 44.0
25.3266 51.0
25.347 53.0
25.3675 63.0
25.3879 75.0
25.4083 112.0
25.4288 141.0
25.4492 160.0
25.4696 236.0
25.4901 323.0
25.5105 527.0
25.5309 768.0
25.5514 1121.0
25.5718 1375.0
25.5922 1370.0
25.6127 1240.0
25.6331 1198.0
25.6535 938.0
25.674 795.0
25.6944 594.0
25.7148 512.0
25.7353 355.0
25.7557 272.0
25.7761 227.0
25.7966 185.0
25.817 145.0
25.8374 110.0
25.8579 102.0
25.8783 88.0
25.8987 63.0
25.9191 46.0
25.9396 43.0
25.96 40.0
25.9804 41.0
26.0009 30.0
26.0213 22.0
26.0417 33.0
26.0622 46.0
26.0826 30.0
26.103 23.0
26.1235 27.0
26.1439 32.0
26.1643 28.0
26.1848 23.0
26.2052 22.0
26.2256 20.0
26.2461 23.0
26.2665 17.0
26.2869 21.0
26.3074 17.0
26.3278 21.0
26.3482 24.0
26.3687 18.0
26.3891 22.0
26.4095 21.0
26.43 22.0
26.4504 22.0
26.4708 25.0
26.4913 26.0
26.5117 21.0
26.5321 16.0
26.5526 26.0
26.573 26.0
26.5934 14.0
26.6139 18.0
26.6343 25.0
26.6547 17.0
26.6752 19.0
26.6956 13.0
26.716 15.0
26.7365 20.0
26.7569 15.0
26.7773 9.0
26.7978 21.0
26.8182 17.0
26.8386 11.0
26.859 20.0
26.8795 5.0
26.8999 21.0
26.9203 14.0
26.9408 18.0
26.9612 11.0
26.9816 22.0
27.0021 13.0
27.0225 33.0
27.0429 17.0
27.0634 18.0
27.0838 18.0
27.1042 10.0
27.1247 18.0
27.1451 23.0
27.1655 14.0
27.186 12.0
27.2064 19.0
27.2268 14.0
27.2473 16.0
27.2677 19.0
27.2881 15.0
27.3086 10.0
27.329 10.0
27.3494 15.0
27.3699 13.0
27.3903 21.0
27.4107 11.0
27.4312 15.0
27.4516 18.0
27.472 14.0
27.4925 6.0
27.5129 12.0
27.5333 10.0
27.5538 14.0
27.5742 23.0
27.5946 19.0
27.6151 14.0
27.6355 12.0
27.6559 20.0
27.6764 14.0
27.6968 19.0
27.7172 23.0
27.7377 23.0
27.7581 23.0
27.7785 23.0
27.7989 19.0
27.8194 17.0
27.8398 23.0
27.8602 16.0
27.8807 15.0
27.9011 13.0
27.9215 13.0
27.942 10.0
27.9624 13.0
27.9828 16.0
28.0033 15.0
28.0237 7.0
28.0441 14.0
28.0646 19.0
28.085 6.0
28.1054 11.0
28.1259 10.0
28.1463 13.0
28.1667 12.0
28.1872 13.0
28.2076 12.0
28.228 20.0
28.2485 13.0
28.2689 12.0
28.2893 11.0
28.3098 9.0
28.3302 13.0
28.3506 12.0
28.3711 18.0
28.3915 9.0
28.4119 16.0
28.4324 21.0
28.4528 18.0
28.4732 12.0
28.4937 11.0
28.5141 13.0
28.5345 9.0
28.555 13.0
28.5754 13.0
28.5958 13.0
28.6163 16.0
28.6367 8.0
28.6571 12.0
28.6775 9.0
28.698 10.0
28.7184 12.0
28.7388 9.0
28.7593 10.0
28.7797 10.0
28.8001 18.0
28.8206 13.0
28.841 15.0
28.8614 15.0
28.8819 14.0
28.9023 10.0
28.9227 15.0
28.9432 23.0
28.9636 10.0
28.984 14.0
29.0045 16.0
29.0249 12.0
29.0453 13.0
29.0658 14.0
29.0862 10.0
29.1066 17.0
29.1271 13.0
29.1475 15.0
29.1679 11.0
29.1884 17.0
29.2088 16.0
29.2292 15.0
29.2497 18.0
29.2701 15.0
29.2905 15.0
29.311 14.0
29.3314 12.0
29.3518 14.0
29.3723 24.0
29.3927 19.0
29.4131 14.0
29.4336 25.0
29.454 13.0
29.4744 15.0
29.4949 21.0
29.5153 24.0
29.5357 25.0
29.5562 32.0
29.5766 22.0
29.597 22.0
29.6174 35.0
29.6379 36.0
29.6583 45.0
29.6787 66.0
29.6992 55.0
29.7196 45.0
29.74 56.0
29.7605 42.0
29.7809 49.0
29.8013 50.0
29.8218 31.0
29.8422 34.0
29.8626 36.0
29.8831 29.0
29.9035 16.0
29.9239 20.0
29.9444 21.0
29.9648 12.0
29.9852 28.0
30.0057 22.0
30.0261 17.0
30.0465 7.0
30.067 17.0
30.0874 16.0
30.1078 17.0
30.1283 9.0
30.1487 13.0
30.1691 19.0
30.1896 11.0
30.21 6.0
30.2304 25.0
30.2509 17.0
30.2713 25.0
30.2917 12.0
30.3122 19.0
30.3326 14.0
30.353 14.0
30.3735 13.0
30.3939 15.0
30.4143 14.0
30.4348 13.0
30.4552 23.0
30.4756 21.0
30.496 18.0
30.5165 28.0
30.5369 23.0
30.5573 26.0
30.5778 21.0
30.5982 34.0
30.6186 51.0
30.6391 41.0
30.6595 36.0
30.6799 53.0
30.7004 54.0
30.7208 54.0
30.7412 67.0
30.7617 108.0
30.7821 104.0
30.8025 99.0
30.823 122.0
30.8434 156.0
30.8638 133.0
30.8843 108.0
30.9047 108.0
30.9251 73.0
30.9456 82.0
30.966 70.0
30.9864 51.0
31.0069 47.0
31.0273 35.0
31.0477 44.0
31.0682 38.0
31.0886 39.0
31.109 29.0
31.1295 25.0
31.1499 22.0
31.1703 24.0
31.1908 19.0
31.2112 18.0
31.2316 14.0
31.2521 22.0
31.2725 23.0
31.2929 19.0
31.3134 26.0
31.3338 18.0
31.3542 17.0
31.3747 25.0
31.3951 22.0
31.4155 14.0
31.4359 20.0
31.4564 20.0
31.4768 21.0
31.4972 22.0
31.5177 17.0
31.5381 19.0
31.5585 21.0
31.579 26.0
31.5994 23.0
31.6198 31.0
31.6403 25.0
31.6607 27.0
31.6811 35.0
31.7016 27.0
31.722 32.0
31.7424 36.0
31.7629 31.0
31.7833 52.0
31.8037 45.0
31.8242 71.0
31.8446 63.0
31.865 79.0
31.8855 108.0
31.9059 134.0
31.9263 140.0
31.9468 167.0
31.9672 182.0
31.9876 211.0
32.0081 204.0
32.0285 201.0
32.0489 212.0
32.0694 185.0
32.0898 196.0
32.1102 163.0
32.1307 146.0
32.1511 105.0
32.1715 93.0
32.192 93.0
32.2124 85.0
32.2328 63.0
32.2533 54.0
32.2737 56.0
32.2941 30.0
32.3146 40.0
32.335 39.0
32.3554 39.0
32.3758 33.0
32.3963 28.0
32.4167 31.0
32.4371 28.0
32.4576 19.0
32.478 21.0
32.4984 19.0
32.5189 21.0
32.5393 21.0
32.5597 18.0
32.5802 23.0
32.6006 22.0
32.621 16.0
32.6415 16.0
32.6619 20.0
32.6823 17.0
32.7028 15.0
32.7232 15.0
32.7436 18.0
32.7641 16.0
32.7845 13.0
32.8049 19.0
32.8254 12.0
32.8458 15.0
32.8662 18.0
32.8867 13.0
32.9071 13.0
32.9275 15.0
32.948 11.0
32.9684 12.0
32.9888 13.0
33.0093 18.0
33.0297 15.0
33.0501 14.0
33.0706 12.0
33.091 10.0
33.1114 15.0
33.1319 10.0
33.1523 16.0
33.1727 12.0
33.1932 11.0
33.2136 9.0
33.234 14.0
33.2544 10.0
33.2749 8.0
33.2953 11.0
33.3157 7.0
33.3362 14.0
33.3566 14.0
33.377 8.0
33.3975 12.0
33.4179 11.0
33.4383 14.0
33.4588 11.0
33.4792 5.0
33.4996 12.0
33.5201 14.0
33.5405 11.0
33.5609 16.0
33.5814 13.0
33.6018 9.0
33.6222 12.0
33.6427 8.0
33.6631 8.0
33.6835 11.0
33.704 13.0
33.7244 7.0
33.7448 17.0
33.7653 10.0
33.7857 7.0
33.8061 8.0
33.8266 18.0
33.847 8.0
33.8674 15.0
33.8879 11.0
33.9083 10.0
33.9287 14.0
33.9492 10.0
33.9696 10.0
33.99 10.0
34.0105 14.0
34.0309 10.0
34.0513 10.0
34.0718 16.0
34.0922 16.0
34.1126 26.0
34.1331 15.0
34.1535 22.0
34.1739 27.0
34.1943 28.0
34.2148 27.0
34.2352 30.0
34.2556 39.0
34.2761 63.0
34.2965 57.0
34.3169 62.0
34.3374 68.0
34.3578 72.0
34.3782 47.0
34.3987 57.0
34.4191 39.0
34.4395 54.0
34.46 49.0
34.4804 33.0
34.5008 33.0
34.5213 42.0
34.5417 20.0
34.5621 23.0
34.5826 14.0
34.603 14.0
34.6234 18.0
34.6439 17.0
34.6643 18.0
34.6847 9.0
34.7052 18.0
34.7256 21.0
34.746 16.0
34.7665 15.0
34.7869 14.0
34.8073 9.0
34.8278 8.0
34.8482 13.0
34.8686 6.0
34.8891 12.0
34.9095 9.0
34.9299 14.0
34.9504 20.0
34.9708 15.0
34.9912 10.0
35.0117 12.0
35.0321 12.0
35.0525 14.0
35.0729 15.0
35.0934 12.0
35.1138 5.0
35.1342 5.0
35.1547 11.0
35.1751 11.0
35.1955 11.0
35.216 3.0
35.2364 18.0
35.2568 9.0
35.2773 12.0
35.2977 18.0
35.3181 7.0
35.3386 11.0
35.359 15.0
35.3794 15.0
35.3999 15.0
35.4203 4.0
35.4407 5.0
35.4612 10.0
35.4816 7.0
35.502 11.0
35.5225 12.0
35.5429 7.0
35.5633 17.0
35.5838 13.0
35.6042 13.0
35.6246 24.0
35.6451 10.0
35.6655 18.0
35.6859 11.0
35.7064 7.0
35.7268 6.0
35.7472 10.0
35.7677 14.0
35.7881 10.0
35.8085 7.0
35.829 7.0
35.8494 13.0
35.8698 17.0
35.8903 8.0
35.9107 13.0
35.9311 7.0
35.9516 10.0
35.972 15.0
35.9924 10.0
36.0128 15.0
36.0333 13.0
36.0537 10.0
36.0741 11.0
36.0946 18.0
36.115 12.0
36.1354 10.0
36.1559 14.0
36.1763 18.0
36.1967 19.0
36.2172 18.0
36.2376 28.0
36.258 32.0
36.2785 39.0
36.2989 45.0
36.3193 83.0
36.3398 93.0
36.3602 103.0
36.3806 99.0
36.4011 80.0
36.4215 91.0
36.4419 100.0
36.4624 67.0
36.4828 58.0
36.5032 39.0
36.5237 34.0
36.5441 25.0
36.5645 34.0
36.585 27.0
36.6054 17.0
36.6258 10.0
36.6463 20.0
36.6667 12.0
36.6871 15.0
36.7076 13.0
36.728 24.0
36.7484 10.0
36.7689 11.0
36.7893 13.0
36.8097 9.0
36.8302 24.0
36.8506 8.0
36.871 15.0
36.8915 12.0
36.9119 26.0
36.9323 13.0
36.9527 14.0
36.9732 14.0
36.9936 21.0
37.014 24.0
37.0345 21.0
37.0549 40.0
37.0753 37.0
37.0958 38.0
37.1162 49.0
37.1366 59.0
37.1571 81.0
37.1775 82.0
37.1979 109.0
37.2184 120.0
37.2388 88.0
37.2592 101.0
37.2797 109.0
37.3001 95.0
37.3205 96.0
37.341 95.0
37.3614 71.0
37.3818 65.0
37.4023 31.0
37.4227 54.0
37.4431 33.0
37.4636 28.0
37.484 13.0
37.5044 22.0
37.5249 17.0
37.5453 20.0
37.5657 14.0
37.5862 17.0
37.6066 18.0
37.627 15.0
37.6475 15.0
37.6679 16.0
37.6883 16.0
37.7088 13.0
37.7292 15.0
37.7496 20.0
37.7701 17.0
37.7905 22.0
37.8109 29.0
37.8313 26.0
37.8518 37.0
37.8722 40.0
37.8926 38.0
37.9131 40.0
37.9335 51.0
37.9539 65.0
37.9744 88.0
37.9948 121.0
38.0152 182.0
38.0357 207.0
38.0561 247.0
38.0765 268.0
38.097 243.0
38.1174 250.0
38.1378 234.0
38.1583 192.0
38.1787 168.0
38.1991 159.0
38.2196 110.0
38.24 79.0
38.2604 63.0
38.2809 66.0
38.3013 46.0
38.3217 34.0
38.3422 30.0
38.3626 22.0
38.383 32.0
38.4035 30.0
38.4239 15.0
38.4443 23.0
38.4648 17.0
38.4852 13.0
38.5056 14.0
38.5261 12.0
38.5465 15.0
38.5669 15.0
38.5874 12.0
38.6078 15.0
38.6282 17.0
38.6487 17.0
38.6691 19.0
38.6895 24.0
38.71 22.0
38.7304 17.0
38.7508 37.0
38.7712 47.0
38.7917 49.0
38.8121 66.0
38.8325 69.0
38.853 63.0
38.8734 78.0
38.8938 74.0
38.9143 73.0
38.9347 74.0
38.9551 70.0
38.9756 55.0
38.996 41.0
39.0164 41.0
39.0369 25.0
39.0573 34.0
39.0777 17.0
39.0982 18.0
39.1186 18.0
39.139 21.0
39.1595 8.0
39.1799 12.0
39.2003 10.0
39.2208 11.0
39.2412 12.0
39.2616 5.0
39.2821 11.0
39.3025 12.0
39.3229 12.0
39.3434 18.0
39.3638 8.0
39.3842 7.0
39.4047 14.0
39.4251 12.0
39.4455 6.0
39.466 12.0
39.4864 8.0
39.5068 10.0
39.5273 11.0
39.5477 11.0
39.5681 9.0
39.5886 14.0
39.609 14.0
39.6294 14.0
39.6498 15.0
39.6703 9.0
39.6907 17.0
39.7111 27.0
39.7316 16.0
39.752 22.0
39.7724 32.0
39.7929 42.0
39.8133 52.0
39.8337 72.0
39.8542 61.0
39.8746 43.0
39.895 47.0
39.9155 33.0
39.9359 47.0
39.9563 43.0
39.9768 47.0
39.9972 36.0
40.0176 28.0
40.0381 19.0
40.0585 22.0
40.0789 18.0
40.0994 22.0
40.1198 23.0
40.1402 19.0
40.1607 24.0
40.1811 18.0
40.2015 31.0
40.222 19.0
40.2424 21.0
40.2628 22.0
40.2833 26.0
40.3037 23.0
40.3241 18.0
40.3446 20.0
40.365 17.0
40.3854 15.0
40.4059 12.0
40.4263 9.0
40.4467 7.0
40.4672 13.0
40.4876 5.0
40.508 10.0
40.5285 9.0
40.5489 9.0
40.5693 6.0
40.5897 6.0
40.6102 11.0
40.6306 12.0
40.651 10.0
40.6715 11.0
40.6919 9.0
40.7123 14.0
40.7328 6.0
40.7532 8.0
40.7736 5.0
40.7941 9.0
40.8145 9.0
40.8349 6.0
40.8554 4.0
40.8758 11.0
40.8962 10.0
40.9167 5.0
40.9371 9.0
40.9575 10.0
40.978 6.0
40.9984 11.0
41.0188 5.0
41.0393 5.0
41.0597 2.0
41.0801 11.0
41.1006 6.0
41.121 8.0
41.1414 4.0
41.1619 7.0
41.1823 5.0
41.2027 6.0
41.2232 7.0
41.2436 10.0
41.264 10.0
41.2845 4.0
41.3049 8.0
41.3253 9.0
41.3458 4.0
41.3662 7.0
41.3866 9.0
41.4071 7.0
41.4275 6.0
41.4479 11.0
41.4684 11.0
41.4888 7.0
41.5092 3.0
41.5296 14.0
41.5501 8.0
41.5705 11.0
41.5909 6.0
41.6114 9.0
41.6318 7.0
41.6522 3.0
41.6727 7.0
41.6931 7.0
41.7135 5.0
41.734 7.0
41.7544 2.0
41.7748 8.0
41.7953 14.0
41.8157 4.0
41.8361 11.0
41.8566 9.0
41.877 5.0
41.8974 8.0
41.9179 9.0
41.9383 7.0
41.9587 7.0
41.9792 3.0
41.9996 7.0
42.02 5.0
42.0405 3.0
42.0609 5.0
42.0813 6.0
42.1018 5.0
42.1222 8.0
42.1426 7.0
42.1631 2.0
42.1835 8.0
42.2039 7.0
42.2244 10.0
42.2448 3.0
42.2652 6.0
42.2857 7.0
42.3061 5.0
42.3265 7.0
42.347 9.0
42.3674 8.0
42.3878 4.0
42.4082 9.0
42.4287 7.0
42.4491 7.0
42.4695 4.0
42.49 10.0
42.5104 7.0
42.5308 4.0
42.5513 5.0
42.5717 8.0
42.5921 6.0
42.6126 6.0
42.633 7.0
42.6534 9.0
42.6739 11.0
42.6943 4.0
42.7147 15.0
42.7352 8.0
42.7556 11.0
42.776 12.0
42.7965 8.0
42.8169 8.0
42.8373 10.0
42.8578 12.0
42.8782 7.0
42.8986 7.0
42.9191 13.0
42.9395 7.0
42.9599 21.0
42.9804 16.0
43.0008 17.0
43.0212 22.0
43.0417 8.0
43.0621 19.0
43.0825 12.0
43.103 13.0
43.1234 15.0
43.1438 12.0
43.1643 15.0
43.1847 17.0
43.2051 7.0
43.2256 10.0
43.246 4.0
43.2664 6.0
43.2869 4.0
43.3073 10.0
43.3277 12.0
43.3481 7.0
43.3686 9.0
43.389 4.0
43.4094 9.0
43.4299 6.0
43.4503 7.0
43.4707 10.0
43.4912 8.0
43.5116 13.0
43.532 14.0
43.5525 11.0
43.5729 7.0
43.5933 14.0
43.6138 8.0
43.6342 10.0
43.6546 14.0
43.6751 19.0
43.6955 19.0
43.7159 26.0
43.7364 35.0
43.7568 22.0
43.7772 23.0
43.7977 24.0
43.8181 28.0
43.8385 21.0
43.859 11.0
43.8794 12.0
43.8998 10.0
43.9203 15.0
43.9407 14.0
43.9611 7.0
43.9816 12.0
44.002 8.0
44.0224 13.0
44.0429 7.0
44.0633 6.0
44.0837 9.0
44.1042 9.0
44.1246 9.0
44.145 11.0
44.1655 3.0
44.1859 8.0
44.2063 8.0
44.2267 7.0
44.2472 6.0
44.2676 7.0
44.288 6.0
44.3085 8.0
44.3289 11.0
44.3493 7.0
44.3698 5.0
44.3902 4.0
44.4106 9.0
44.4311 4.0
44.4515 5.0
44.4719 2.0
44.4924 6.0
44.5128 4.0
44.5332 5.0
44.5537 6.0
44.5741 6.0
44.5945 9.0
44.615 7.0
44.6354 8.0
44.6558 5.0
44.6763 5.0
44.6967 4.0
44.7171 4.0
44.7376 9.0
44.758 7.0
44.7784 6.0
44.7989 10.0
44.8193 3.0
44.8397 8.0
44.8602 8.0
44.8806 2.0
44.901 6.0
44.9215 7.0
44.9419 3.0
44.9623 6.0
44.9828 8.0
45.0032 8.0
45.0236 11.0
45.0441 8.0
45.0645 9.0
45.0849 4.0
45.1054 7.0
45.1258 7.0
45.1462 9.0
45.1666 11.0
45.1871 6.0
45.2075 6.0
45.2279 7.0
45.2484 9.0
45.2688 7.0
45.2892 9.0
45.3097 5.0
45.3301 11.0
45.3505 3.0
45.371 9.0
45.3914 11.0
45.4118 6.0
45.4323 6.0
45.4527 10.0
45.4731 6.0
45.4936 5.0
45.514 7.0
45.5344 6.0
45.5549 9.0
45.5753 6.0
45.5957 4.0
45.6162 5.0
45.6366 4.0
45.657 8.0
45.6775 8.0
45.6979 4.0
45.7183 6.0
45.7388 5.0
45.7592 4.0
45.7796 5.0
45.8001 2.0
45.8205 7.0
45.8409 3.0
45.8614 4.0
45.8818 5.0
45.9022 10.0
45.9227 12.0
45.9431 5.0
45.9635 9.0
45.984 11.0
46.0044 9.0
46.0248 6.0
46.0453 8.0
46.0657 7.0
46.0861 11.0
46.1065 8.0
46.127 12.0
46.1474 15.0
46.1678 20.0
46.1883 14.0
46.2087 15.0
46.2291 11.0
46.2496 14.0
46.27 16.0
46.2904 6.0
46.3109 9.0
46.3313 5.0
46.3517 7.0
46.3722 9.0
46.3926 10.0
46.413 10.0
46.4335 7.0
46.4539 7.0
46.4743 4.0
46.4948 13.0
46.5152 7.0
46.5356 9.0
46.5561 9.0
46.5765 7.0
46.5969 11.0
46.6174 8.0
46.6378 8.0
46.6582 2.0
46.6787 6.0
46.6991 12.0
46.7195 8.0
46.74 15.0
46.7604 6.0
46.7808 8.0
46.8013 10.0
46.8217 8.0
46.8421 9.0
46.8626 11.0
46.883 8.0
46.9034 5.0
46.9239 7.0
46.9443 10.0
46.9647 8.0
46.9851 7.0
47.0056 8.0
47.026 6.0
47.0464 7.0
47.0669 9.0
47.0873 3.0
47.1077 8.0
47.1282 13.0
47.1486 9.0
47.169 10.0
47.1895 14.0
47.2099 7.0
47.2303 9.0
47.2508 7.0
47.2712 8.0
47.2916 5.0
47.3121 8.0
47.3325 11.0
47.3529 8.0
47.3734 5.0
47.3938 6.0
47.4142 10.0
47.4347 9.0
47.4551 8.0
47.4755 8.0
47.496 5.0
47.5164 9.0
47.5368 8.0
47.5573 14.0
47.5777 8.0
47.5981 2.0
47.6186 6.0
47.639 6.0
47.6594 6.0
47.6799 8.0
47.7003 14.0
47.7207 9.0
47.7412 11.0
47.7616 9.0
47.782 14.0
47.8025 12.0
47.8229 10.0
47.8433 12.0
47.8638 11.0
47.8842 15.0
47.9046 14.0
47.925 16.0
47.9455 15.0
47.9659 16.0
47.9863 25.0
48.0068 22.0
48.0272 29.0
48.0476 28.0
48.0681 20.0
48.0885 35.0
48.1089 44.0
48.1294 43.0
48.1498 46.0
48.1702 58.0
48.1907 72.0
48.2111 88.0
48.2315 149.0
48.252 189.0
48.2724 301.0
48.2928 338.0
48.3133 349.0
48.3337 349.0
48.3541 270.0
48.3746 250.0
48.395 283.0
48.4154 247.0
48.4359 212.0
48.4563 204.0
48.4767 171.0
48.4972 146.0
48.5176 90.0
48.538 73.0
48.5585 65.0
48.5789 53.0
48.5993 43.0
48.6198 30.0
48.6402 31.0
48.6606 23.0
48.6811 21.0
48.7015 16.0
48.7219 31.0
48.7424 21.0
48.7628 18.0
48.7832 16.0
48.8036 17.0
48.8241 22.0
48.8445 19.0
48.8649 21.0
48.8854 27.0
48.9058 26.0
48.9262 21.0
48.9467 24.0
48.9671 31.0
48.9875 28.0
49.008 32.0
49.0284 39.0
49.0488 36.0
49.0693 40.0
49.0897 37.0
49.1101 25.0
49.1306 24.0
49.151 32.0
49.1714 33.0
49.1919 17.0
49.2123 28.0
49.2327 25.0
49.2532 14.0
49.2736 16.0
49.294 14.0
49.3145 14.0
49.3349 10.0
49.3553 14.0
49.3758 10.0
49.3962 14.0
49.4166 15.0
49.4371 7.0
49.4575 8.0
49.4779 9.0
49.4984 15.0
49.5188 16.0
49.5392 7.0
49.5597 8.0
49.5801 7.0
49.6005 11.0
49.621 6.0
49.6414 10.0
49.6618 10.0
49.6823 4.0
49.7027 8.0
49.7231 11.0
49.7435 8.0
49.764 8.0
49.7844 3.0
49.8048 5.0
49.8253 11.0
49.8457 11.0
49.8661 2.0
49.8866 6.0
49.907 4.0
49.9274 10.0
49.9479 8.0
49.9683 7.0
49.9887 4.0
50.0092 8.0
50.0296 10.0
50.05 6.0
50.0705 10.0
50.0909 6.0
50.1113 8.0
50.1318 5.0
50.1522 7.0
50.1726 6.0
50.1931 6.0
50.2135 9.0
50.2339 8.0
50.2544 11.0
50.2748 7.0
50.2952 7.0
50.3157 9.0
50.3361 3.0
50.3565 7.0
50.377 13.0
50.3974 11.0
50.4178 9.0
50.4383 8.0
50.4587 10.0
50.4791 11.0
50.4996 14.0
50.52 17.0
50.5404 11.0
50.5609 6.0
50.5813 9.0
50.6017 16.0
50.6221 9.0
50.6426 7.0
50.663 6.0
50.6834 11.0
50.7039 8.0
50.7243 11.0
50.7447 11.0
50.7652 7.0
50.7856 12.0
50.806 9.0
50.8265 5.0
50.8469 7.0
50.8673 7.0
50.8878 8.0
50.9082 7.0
50.9286 8.0
50.9491 6.0
50.9695 8.0
50.9899 3.0
51.0104 7.0
51.0308 6.0
51.0512 3.0
51.0717 4.0
51.0921 3.0
51.1125 8.0
51.133 5.0
51.1534 8.0
51.1738 9.0
51.1943 8.0
51.2147 5.0
51.2351 17.0
51.2556 10.0
51.276 3.0
51.2964 2.0
51.3169 7.0
51.3373 6.0
51.3577 7.0
51.3782 9.0
51.3986 2.0
51.419 9.0
51.4395 10.0
51.4599 6.0
51.4803 7.0
51.5008 7.0
51.5212 9.0
51.5416 3.0
51.562 6.0
51.5825 9.0
51.6029 11.0
51.6233 9.0
51.6438 12.0
51.6642 5.0
51.6846 10.0
51.7051 16.0
51.7255 17.0
51.7459 12.0
51.7664 11.0
51.7868 8.0
51.8072 12.0
51.8277 6.0
51.8481 7.0
51.8685 7.0
51.889 8.0
51.9094 8.0
51.9298 8.0
51.9503 7.0
51.9707 6.0
51.9911 6.0
52.0116 7.0
52.032 11.0
52.0524 6.0
52.0729 9.0
52.0933 10.0
52.1137 2.0
52.1342 5.0
52.1546 8.0
52.175 7.0
52.1955 4.0
52.2159 13.0
52.2363 6.0
52.2568 10.0
52.2772 8.0
52.2976 7.0
52.3181 6.0
52.3385 9.0
52.3589 6.0
52.3794 6.0
52.3998 10.0
52.4202 6.0
52.4407 8.0
52.4611 5.0
52.4815 6.0
52.5019 6.0
52.5224 6.0
52.5428 11.0
52.5632 8.0
52.5837 6.0
52.6041 8.0
52.6245 5.0
52.645 5.0
52.6654 9.0
52.6858 13.0
52.7063 5.0
52.7267 7.0
52.7471 10.0
52.7676 10.0
52.788 14.0
52.8084 11.0
52.8289 10.0
52.8493 16.0
52.8697 14.0
52.8902 8.0
52.9106 9.0
52.931 10.0
52.9515 8.0
52.9719 7.0
52.9923 4.0
53.0128 10.0
53.0332 6.0
53.0536 8.0
53.0741 5.0
53.0945 4.0
53.1149 6.0
53.1354 10.0
53.1558 5.0
53.1762 10.0
53.1967 10.0
53.2171 6.0
53.2375 12.0
53.258 13.0
53.2784 7.0
53.2988 9.0
53.3193 5.0
53.3397 11.0
53.3601 6.0
53.3805 12.0
53.401 10.0
53.4214 5.0
53.4418 7.0
53.4623 6.0
53.4827 14.0
53.5031 11.0
53.5236 9.0
53.544 7.0
53.5644 10.0
53.5849 9.0
53.6053 16.0
53.6257 5.0
53.6462 7.0
53.6666 7.0
53.687 10.0
53.7075 9.0
53.7279 16.0
53.7483 6.0
53.7688 10.0
53.7892 16.0
53.8096 9.0
53.8301 20.0
53.8505 22.0
53.8709 22.0
53.8914 19.0
53.9118 31.0
53.9322 27.0
53.9527 21.0
53.9731 43.0
53.9935 39.0
54.014 54.0
54.0344 83.0
54.0548 77.0
54.0753 113.0
54.0957 151.0
54.1161 176.0
54.1366 170.0
54.157 193.0
54.1774 218.0
54.1979 155.0
54.2183 175.0
54.2387 169.0
54.2592 160.0
54.2796 131.0
54.3 155.0
54.3204 101.0
54.3409 96.0
54.3613 91.0
54.3817 58.0
54.4022 60.0
54.4226 44.0
54.443 25.0
54.4635 23.0
54.4839 26.0
54.5043 25.0
54.5248 28.0
54.5452 12.0
54.5656 14.0
54.5861 15.0
54.6065 22.0
54.6269 20.0
54.6474 17.0
54.6678 9.0
54.6882 10.0
54.7087 10.0
54.7291 9.0
54.7495 10.0
54.77 20.0
54.7904 13.0
54.8108 21.0
54.8313 14.0
54.8517 11.0
54.8721 10.0
54.8926 21.0
54.913 14.0
54.9334 11.0
54.9539 13.0
54.9743 28.0
54.9947 19.0
55.0152 19.0
55.0356 25.0
55.056 19.0
55.0765 19.0
55.0969 28.0
55.1173 31.0
55.1378 30.0
55.1582 29.0
55.1786 47.0
55.199 55.0
55.2195 72.0
55.2399 70.0
55.2603 100.0
55.2808 159.0
55.3012 183.0
55.3216 190.0
55.3421 215.0
55.3625 175.0
55.3829 185.0
55.4034 143.0
55.4238 159.0
55.4442 148.0
55.4647 147.0
55.4851 135.0
55.5055 105.0
55.526 99.0
55.5464 85.0
55.5668 67.0
55.5873 49.0
55.6077 37.0
55.6281 21.0
55.6486 19.0
55.669 22.0
55.6894 21.0
55.7099 11.0
55.7303 14.0
55.7507 10.0
55.7712 22.0
55.7916 10.0
55.812 18.0
55.8325 11.0
55.8529 10.0
55.8733 6.0
55.8938 10.0
55.9142 8.0
55.9346 4.0
55.9551 14.0
55.9755 9.0
55.9959 5.0
56.0164 7.0
56.0368 10.0
56.0572 8.0
56.0777 8.0
56.0981 15.0
56.1185 10.0
56.1389 10.0
56.1594 11.0
56.1798 9.0
56.2002 11.0
56.2207 7.0
56.2411 11.0
56.2615 10.0
56.282 5.0
56.3024 5.0
56.3228 9.0
56.3433 5.0
56.3637 2.0
56.3841 7.0
56.4046 12.0
56.425 10.0
56.4454 8.0
56.4659 11.0
56.4863 10.0
56.5067 8.0
56.5272 8.0
56.5476 11.0
56.568 12.0
56.5885 7.0
56.6089 4.0
56.6293 2.0
56.6498 7.0
56.6702 9.0
56.6906 6.0
56.7111 9.0
56.7315 7.0
56.7519 9.0
56.7724 6.0
56.7928 9.0
56.8132 10.0
56.8337 14.0
56.8541 15.0
56.8745 4.0
56.895 12.0
56.9154 10.0
56.9358 11.0
56.9563 14.0
56.9767 21.0
56.9971 26.0
57.0176 28.0
57.038 23.0
57.0584 23.0
57.0788 23.0
57.0993 30.0
57.1197 15.0
57.1401 18.0
57.1606 14.0
57.181 20.0
57.2014 20.0
57.2219 14.0
57.2423 11.0
57.2627 17.0
57.2832 16.0
57.3036 8.0
57.324 8.0
57.3445 11.0
57.3649 13.0
57.3853 10.0
57.4058 5.0
57.4262 5.0
57.4466 9.0
57.4671 14.0
57.4875 9.0
57.5079 2.0
57.5284 6.0
57.5488 12.0
57.5692 11.0
57.5897 7.0
57.6101 9.0
57.6305 7.0
57.651 7.0
57.6714 8.0
57.6918 10.0
57.7123 10.0
57.7327 10.0
57.7531 9.0
57.7736 4.0
57.794 8.0
57.8144 15.0
57.8349 10.0
57.8553 11.0
57.8757 18.0
57.8962 13.0
57.9166 15.0
57.937 17.0
57.9574 28.0
57.9779 29.0
57.9983 16.0
58.0187 29.0
58.0392 26.0
58.0596 27.0
58.08 21.0
58.1005 25.0
58.1209 20.0
58.1413 19.0
58.1618 19.0
58.1822 19.0
58.2026 21.0
58.2231 25.0
58.2435 16.0
58.2639 6.0
58.2844 21.0
58.3048 12.0
58.3252 13.0
58.3457 16.0
58.3661 12.0
58.3865 13.0
58.407 18.0
58.4274 16.0
58.4478 10.0
58.4683 13.0
58.4887 14.0
58.5091 18.0
58.5296 15.0
58.55 13.0
58.5704 19.0
58.5909 13.0
58.6113 17.0
58.6317 19.0
58.6522 15.0
58.6726 14.0
58.693 7.0
58.7135 15.0
58.7339 16.0
58.7543 13.0
58.7748 11.0
58.7952 12.0
58.8156 12.0
58.8361 12.0
58.8565 13.0
58.8769 19.0
58.8973 10.0
58.9178 15.0
58.9382 15.0
58.9586 14.0
58.9791 16.0
58.9995 8.0
59.0199 10.0
59.0404 12.0
59.0608 18.0
59.0812 18.0
59.1017 10.0
59.1221 8.0
59.1425 17.0
59.163 15.0
59.1834 12.0
59.2038 18.0
59.2243 17.0
59.2447 16.0
59.2651 21.0
59.2856 19.0
59.306 20.0
59.3264 20.0
59.3469 20.0
59.3673 14.0
59.3877 11.0
59.4082 15.0
59.4286 14.0
59.449 14.0
59.4695 13.0
59.4899 12.0
59.5103 16.0
59.5308 15.0
59.5512 10.0
59.5716 14.0
59.5921 16.0
59.6125 12.0
59.6329 13.0
59.6534 21.0
59.6738 9.0
59.6942 10.0
59.7147 11.0
59.7351 14.0
59.7555 20.0
59.7759 21.0
59.7964 24.0
59.8168 17.0
59.8372 40.0
59.8577 21.0
59.8781 22.0
59.8985 22.0
59.919 27.0
59.9394 16.0
59.9598 8.0
59.9803 16.0
60.0007 18.0
60.0211 25.0
60.0416 26.0
60.062 18.0
60.0824 13.0
60.1029 21.0
60.1233 16.0
60.1437 14.0
60.1642 13.0
60.1846 14.0
60.205 9.0
60.2255 18.0
60.2459 11.0
60.2663 8.0
60.2868 5.0
60.3072 8.0
60.3276 7.0
60.3481 11.0
60.3685 7.0
60.3889 12.0
60.4094 9.0
60.4298 13.0
60.4502 5.0
60.4707 6.0
60.4911 6.0
60.5115 5.0
60.532 10.0
60.5524 7.0
60.5728 7.0
60.5933 6.0
60.6137 9.0
60.6341 6.0
60.6546 7.0
60.675 4.0
60.6954 6.0
60.7158 3.0
60.7363 5.0
60.7567 6.0
60.7771 11.0
60.7976 9.0
60.818 5.0
60.8384 14.0
60.8589 5.0
60.8793 9.0
60.8997 4.0
60.9202 4.0
60.9406 7.0
60.961 5.0
60.9815 9.0
61.0019 7.0
61.0223 9.0
61.0428 6.0
61.0632 10.0
61.0836 9.0
61.1041 5.0
61.1245 6.0
61.1449 8.0
61.1654 8.0
61.1858 12.0
61.2062 7.0
61.2267 15.0
61.2471 12.0
61.2675 11.0
61.288 17.0
61.3084 14.0
61.3288 19.0
61.3493 9.0
61.3697 7.0
61.3901 20.0
61.4106 18.0
61.431 14.0
61.4514 13.0
61.4719 9.0
61.4923 18.0
61.5127 15.0
61.5332 18.0
61.5536 17.0
61.574 12.0
61.5945 15.0
61.6149 13.0
61.6353 15.0
61.6557 11.0
61.6762 9.0
61.6966 10.0
61.717 14.0
61.7375 18.0
61.7579 23.0
61.7783 14.0
61.7988 14.0
61.8192 12.0
61.8396 8.0
61.8601 8.0
61.8805 7.0
61.9009 19.0
61.9214 16.0
61.9418 14.0
61.9622 17.0
61.9827 10.0
62.0031 22.0
62.0235 10.0
62.044 13.0
62.0644 9.0
62.0848 5.0
62.1053 10.0
62.1257 6.0
62.1461 8.0
62.1666 17.0
62.187 20.0
62.2074 17.0
62.2279 16.0
62.2483 16.0
62.2687 24.0
62.2892 27.0
62.3096 37.0
62.33 39.0
62.3505 45.0
62.3709 40.0
62.3913 36.0
62.4118 35.0
62.4322 20.0
62.4526 26.0
62.4731 25.0
62.4935 34.0
62.5139 48.0
62.5343 31.0
62.5548 39.0
62.5752 34.0
62.5956 28.0
62.6161 19.0
62.6365 25.0
62.6569 31.0
62.6774 26.0
62.6978 21.0
62.7182 24.0
62.7387 17.0
62.7591 30.0
62.7795 46.0
62.8 45.0
62.8204 49.0
62.8408 65.0
62.8613 72.0
62.8817 102.0
62.9021 131.0
62.9226 146.0
62.943 176.0
62.9634 140.0
62.9839 122.0
63.0043 103.0
63.0247 103.0
63.0452 89.0
63.0656 118.0
63.086 104.0
63.1065 108.0
63.1269 89.0
63.1473 96.0
63.1678 61.0
63.1882 56.0
63.2086 45.0
63.2291 35.0
63.2495 26.0
63.2699 25.0
63.2904 28.0
63.3108 23.0
63.3312 16.0
63.3517 12.0
63.3721 18.0
63.3925 13.0
63.413 14.0
63.4334 14.0
63.4538 16.0
63.4742 17.0
63.4947 8.0
63.5151 9.0
63.5355 6.0
63.556 5.0
63.5764 13.0
63.5968 13.0
63.6173 17.0
63.6377 12.0
63.6581 17.0
63.6786 8.0
63.699 11.0
63.7194 10.0
63.7399 13.0
63.7603 9.0
63.7807 8.0
63.8012 13.0
63.8216 18.0
63.842 15.0
63.8625 8.0
63.8829 14.0
63.9033 10.0
63.9238 7.0
63.9442 18.0
63.9646 11.0
63.9851 11.0
64.0055 19.0
64.0259 10.0
64.0464 6.0
64.0668 6.0
64.0872 13.0
64.1077 8.0
64.1281 12.0
64.1485 11.0
64.169 8.0
64.1894 8.0
64.2098 10.0
64.2303 2.0
64.2507 8.0
64.2711 9.0
64.2916 10.0
64.312 6.0
64.3324 7.0
64.3528 3.0
64.3733 16.0
64.3937 6.0
64.4141 8.0
64.4346 6.0
64.455 8.0
64.4754 9.0
64.4959 6.0
64.5163 6.0
64.5367 9.0
64.5572 10.0
64.5776 6.0
64.598 11.0
64.6185 8.0
64.6389 4.0
64.6593 3.0
64.6798 5.0
64.7002 9.0
64.7206 8.0
64.7411 7.0
64.7615 7.0
64.7819 7.0
64.8024 11.0
64.8228 7.0
64.8432 9.0
64.8637 5.0
64.8841 13.0
64.9045 7.0
64.925 8.0
64.9454 7.0
64.9658 4.0
64.9863 7.0
65.0067 7.0
65.0271 5.0
65.0476 8.0
65.068 8.0
65.0884 6.0
65.1089 7.0
65.1293 6.0
65.1497 7.0
65.1702 6.0
65.1906 10.0
65.211 11.0
65.2315 18.0
65.2519 4.0
65.2723 11.0
65.2927 11.0
65.3132 5.0
65.3336 14.0
65.354 12.0
65.3745 4.0
65.3949 9.0
65.4153 11.0
65.4358 6.0
65.4562 5.0
65.4766 12.0
65.4971 5.0
65.5175 3.0
65.5379 6.0
65.5584 8.0
65.5788 6.0
65.5992 19.0
65.6197 12.0
65.6401 17.0
65.6605 11.0
65.681 12.0
65.7014 18.0
65.7218 12.0
65.7423 17.0
65.7627 9.0
65.7831 10.0
65.8036 18.0
65.824 9.0
65.8444 14.0
65.8649 17.0
65.8853 11.0
65.9057 11.0
65.9262 16.0
65.9466 9.0
65.967 4.0
65.9875 8.0
66.0079 3.0
66.0283 6.0
66.0488 6.0
66.0692 5.0
66.0896 9.0
66.1101 6.0
66.1305 4.0
66.1509 3.0
66.1714 8.0
66.1918 7.0
66.2122 11.0
66.2326 11.0
66.2531 4.0
66.2735 10.0
66.2939 6.0
66.3144 6.0
66.3348 6.0
66.3552 7.0
66.3757 5.0
66.3961 5.0
66.4165 8.0
66.437 3.0
66.4574 6.0
66.4778 10.0
66.4983 6.0
66.5187 9.0
66.5391 7.0
66.5596 8.0
66.58 3.0
66.6004 8.0
66.6209 6.0
66.6413 6.0
66.6617 8.0
66.6822 4.0
66.7026 7.0
66.723 7.0
66.7435 12.0
66.7639 6.0
66.7843 2.0
66.8048 6.0
66.8252 6.0
66.8456 8.0
66.8661 1.0
66.8865 4.0
66.9069 4.0
66.9274 4.0
66.9478 6.0
66.9682 3.0
66.9887 3.0
67.0091 9.0
67.0295 7.0
67.05 4.0
67.0704 9.0
67.0908 8.0
67.1112 9.0
67.1317 11.0
67.1521 4.0
67.1725 12.0
67.193 9.0
67.2134 11.0
67.2338 11.0
67.2543 10.0
67.2747 9.0
67.2951 10.0
67.3156 5.0
67.336 5.0
67.3564 6.0
67.3769 10.0
67.3973 4.0
67.4177 10.0
67.4382 5.0
67.4586 3.0
67.479 6.0
67.4995 10.0
67.5199 6.0
67.5403 4.0
67.5608 6.0
67.5812 5.0
67.6016 11.0
67.6221 9.0
67.6425 7.0
67.6629 13.0
67.6834 6.0
67.7038 12.0
67.7242 8.0
67.7447 5.0
67.7651 6.0
67.7855 8.0
67.806 8.0
67.8264 10.0
67.8468 8.0
67.8673 7.0
67.8877 9.0
67.9081 10.0
67.9286 3.0
67.949 2.0
67.9694 4.0
67.9899 5.0
68.0103 5.0
68.0307 14.0
68.0511 6.0
68.0716 12.0
68.092 6.0
68.1124 2.0
68.1329 9.0
68.1533 7.0
68.1737 4.0
68.1942 6.0
68.2146 7.0
68.235 10.0
68.2555 7.0
68.2759 4.0
68.2963 8.0
68.3168 3.0
68.3372 8.0
68.3576 6.0
68.3781 8.0
68.3985 4.0
68.4189 9.0
68.4394 11.0
68.4598 4.0
68.4802 1.0
68.5007 8.0
68.5211 8.0
68.5415 10.0
68.562 12.0
68.5824 7.0
68.6028 10.0
68.6233 7.0
68.6437 13.0
68.6641 12.0
68.6846 9.0
68.705 8.0
68.7254 11.0
68.7459 10.0
68.7663 9.0
68.7867 13.0
68.8072 6.0
68.8276 14.0
68.848 13.0
68.8685 28.0
68.8889 23.0
68.9093 38.0
68.9297 44.0
68.9502 48.0
68.9706 70.0
68.991 80.0
69.0115 68.0
69.0319 75.0
69.0523 63.0
69.0728 53.0
69.0932 51.0
69.1136 45.0
69.1341 44.0
69.1545 52.0
69.1749 52.0
69.1954 39.0
69.2158 37.0
69.2362 41.0
69.2567 36.0
69.2771 31.0
69.2975 31.0
69.318 19.0
69.3384 15.0
69.3588 12.0
69.3793 18.0
69.3997 9.0
69.4201 5.0
69.4406 8.0
69.461 11.0
69.4814 7.0
69.5019 13.0
69.5223 6.0
69.5427 6.0
69.5632 7.0
69.5836 9.0
69.604 9.0
69.6245 9.0
69.6449 5.0
69.6653 4.0
69.6858 10.0
69.7062 9.0
69.7266 9.0
69.7471 6.0
69.7675 8.0
69.7879 11.0
69.8084 11.0
69.8288 8.0
69.8492 7.0
69.8696 8.0
69.8901 11.0
69.9105 8.0
69.9309 11.0
69.9514 5.0
69.9718 6.0
69.9922 8.0
70.0127 4.0
70.0331 5.0
70.0535 12.0
70.074 14.0
70.0944 6.0
70.1148 9.0
70.1353 11.0
70.1557 12.0
70.1761 10.0
70.1966 13.0
70.217 6.0
70.2374 15.0
70.2579 14.0
70.2783 6.0
70.2987 14.0
70.3192 11.0
70.3396 15.0
70.36 20.0
70.3805 12.0
70.4009 20.0
70.4213 24.0
70.4418 27.0
70.4622 39.0
70.4826 53.0
70.5031 74.0
70.5235 60.0
70.5439 90.0
70.5644 76.0
70.5848 66.0
70.6052 52.0
70.6257 48.0
70.6461 60.0
70.6665 36.0
70.687 38.0
70.7074 29.0
70.7278 39.0
70.7483 55.0
70.7687 40.0
70.7891 34.0
70.8095 29.0
70.83 17.0
70.8504 23.0
70.8708 17.0
70.8913 12.0
70.9117 9.0
70.9321 8.0
70.9526 12.0
70.973 6.0
70.9934 5.0
71.0139 6.0
71.0343 10.0
71.0547 8.0
71.0752 7.0
71.0956 8.0
71.116 5.0
71.1365 6.0
71.1569 5.0
71.1773 7.0
71.1978 8.0
71.2182 3.0
71.2386 2.0
71.2591 6.0
71.2795 3.0
71.2999 2.0
71.3204 12.0
71.3408 5.0
71.3612 3.0
71.3817 8.0
71.4021 3.0
71.4225 10.0
71.443 10.0
71.4634 6.0
71.4838 7.0
71.5043 6.0
71.5247 15.0
71.5451 8.0
71.5656 7.0
71.586 5.0
71.6064 6.0
71.6269 13.0
71.6473 7.0
71.6677 14.0
71.6881 12.0
71.7086 3.0
71.729 11.0
71.7494 7.0
71.7699 9.0
71.7903 11.0
71.8107 7.0
71.8312 5.0
71.8516 6.0
71.872 8.0
71.8925 10.0
71.9129 12.0
71.9333 10.0
71.9538 7.0
71.9742 12.0
71.9946 5.0
72.0151 10.0
72.0355 6.0
72.0559 9.0
72.0764 10.0
72.0968 7.0
72.1172 8.0
72.1377 9.0
72.1581 3.0
72.1785 7.0
72.199 6.0
72.2194 8.0
72.2398 3.0
72.2603 9.0
72.2807 4.0
72.3011 7.0
72.3216 11.0
72.342 4.0
72.3624 6.0
72.3829 8.0
72.4033 12.0
72.4237 5.0
72.4442 6.0
72.4646 4.0
72.485 5.0
72.5055 12.0
72.5259 4.0
72.5463 5.0
72.5668 5.0
72.5872 9.0
72.6076 7.0
72.628 4.0
72.6485 9.0
72.6689 3.0
72.6893 10.0
72.7098 4.0
72.7302 8.0
72.7506 8.0
72.7711 8.0
72.7915 4.0
72.8119 3.0
72.8324 5.0
72.8528 10.0
72.8732 8.0
72.8937 3.0
72.9141 11.0
72.9345 3.0
72.955 7.0
72.9754 4.0
72.9958 5.0
73.0163 6.0
73.0367 2.0
73.0571 3.0
73.0776 6.0
73.098 4.0
73.1184 4.0
73.1389 4.0
73.1593 3.0
73.1797 5.0
73.2002 9.0
73.2206 12.0
73.241 7.0
73.2615 5.0
73.2819 10.0
73.3023 8.0
73.3228 1.0
73.3432 10.0
73.3636 7.0
73.3841 4.0
73.4045 4.0
73.4249 12.0
73.4454 5.0
73.4658 9.0
73.4862 2.0
73.5066 5.0
73.5271 2.0
73.5475 3.0
73.5679 11.0
73.5884 4.0
73.6088 8.0
73.6292 3.0
73.6497 6.0
73.6701 9.0
73.6905 7.0
73.711 5.0
73.7314 13.0
73.7518 9.0
73.7723 8.0
73.7927 6.0
73.8131 10.0
73.8336 8.0
73.854 14.0
73.8744 13.0
73.8949 14.0
73.9153 10.0
73.9357 12.0
73.9562 11.0
73.9766 4.0
73.997 16.0
74.0175 11.0
74.0379 10.0
74.0583 16.0
74.0788 8.0
74.0992 10.0
74.1196 13.0
74.1401 8.0
74.1605 15.0
74.1809 27.0
74.2014 15.0
74.2218 22.0
74.2422 18.0
74.2627 17.0
74.2831 20.0
74.3035 10.0
74.324 18.0
74.3444 16.0
74.3648 14.0
74.3853 7.0
74.4057 20.0
74.4261 14.0
74.4465 12.0
74.467 9.0
74.4874 12.0
74.5078 11.0
74.5283 14.0
74.5487 6.0
74.5691 8.0
74.5896 9.0
74.61 2.0
74.6304 10.0
74.6509 12.0
74.6713 11.0
74.6917 7.0
74.7122 8.0
74.7326 5.0
74.753 6.0
74.7735 10.0
74.7939 7.0
74.8143 9.0
74.8348 9.0
74.8552 13.0
74.8756 12.0
74.8961 7.0
74.9165 13.0
74.9369 17.0
74.9574 19.0
74.9778 17.0
74.9982 17.0
75.0187 14.0
75.0391 22.0
75.0595 19.0
75.08 19.0
75.1004 20.0
75.1208 30.0
75.1413 30.0
75.1617 41.0
75.1821 60.0
75.2026 60.0
75.223 79.0
75.2434 88.0
75.2639 110.0
75.2843 96.0
75.3047 113.0
75.3252 91.0
75.3456 72.0
75.366 74.0
75.3864 73.0
75.4069 60.0
75.4273 59.0
75.4477 77.0
75.4682 69.0
75.4886 75.0
75.509 79.0
75.5295 53.0
75.5499 42.0
75.5703 40.0
75.5908 41.0
75.6112 23.0
75.6316 14.0
75.6521 22.0
75.6725 14.0
75.6929 15.0
75.7134 14.0
75.7338 7.0
75.7542 13.0
75.7747 12.0
75.7951 10.0
75.8155 8.0
75.836 15.0
75.8564 10.0
75.8768 11.0
75.8973 13.0
75.9177 6.0
75.9381 8.0
75.9586 10.0
75.979 8.0
75.9994 13.0
76.0199 7.0
76.0403 12.0
76.0607 7.0
76.0812 9.0
76.1016 11.0
76.122 8.0
76.1425 16.0
76.1629 18.0
76.1833 18.0
76.2038 31.0
76.2242 36.0
76.2446 31.0
76.265 35.0
76.2855 31.0
76.3059 39.0
76.3263 25.0
76.3468 19.0
76.3672 17.0
76.3876 33.0
76.4081 26.0
76.4285 19.0
76.4489 13.0
76.4694 32.0
76.4898 19.0
76.5102 19.0
76.5307 16.0
76.5511 14.0
76.5715 13.0
76.592 9.0
76.6124 13.0
76.6328 14.0
76.6533 7.0
76.6737 16.0
76.6941 8.0
76.7146 10.0
76.735 6.0
76.7554 3.0
76.7759 4.0
76.7963 5.0
76.8167 6.0
76.8372 8.0
76.8576 3.0
76.878 5.0
76.8985 5.0
76.9189 3.0
76.9393 4.0
76.9598 4.0
76.9802 4.0
77.0006 12.0
77.0211 11.0
77.0415 9.0
77.0619 5.0
77.0824 2.0
77.1028 9.0
77.1232 3.0
77.1437 3.0
77.1641 11.0
77.1845 3.0
77.2049 3.0
77.2254 2.0
77.2458 9.0
77.2662 11.0
77.2867 5.0
77.3071 7.0
77.3275 3.0
77.348 12.0
77.3684 6.0
77.3888 5.0
77.4093 7.0
77.4297 8.0
77.4501 7.0
77.4706 6.0
77.491 7.0
77.5114 5.0
77.5319 4.0
77.5523 3.0
77.5727 3.0
77.5932 8.0
77.6136 6.0
77.634 7.0
77.6545 8.0
77.6749 2.0
77.6953 5.0
77.7158 8.0
77.7362 5.0
77.7566 3.0
77.7771 7.0
77.7975 6.0
77.8179 1.0
77.8384 4.0
77.8588 10.0
77.8792 2.0
77.8997 7.0
77.9201 4.0
77.9405 3.0
77.961 6.0
77.9814 5.0
78.0018 3.0
78.0223 4.0
78.0427 9.0
78.0631 5.0
78.0835 5.0
78.104 5.0
78.1244 2.0
78.1448 5.0
78.1653 4.0
78.1857 4.0
78.2061 3.0
78.2266 5.0
78.247 10.0
78.2674 6.0
78.2879 8.0
78.3083 9.0
78.3287 6.0
78.3492 3.0
78.3696 3.0
78.39 4.0
78.4105 8.0
78.4309 6.0
78.4513 2.0
78.4718 4.0
78.4922 6.0
78.5126 6.0
78.5331 8.0
78.5535 3.0
78.5739 7.0
78.5944 5.0
78.6148 2.0
78.6352 7.0
78.6557 6.0
78.6761 6.0
78.6965 4.0
78.717 6.0
78.7374 1.0
78.7578 8.0
78.7783 9.0
78.7987 2.0
78.8191 10.0
78.8396 4.0
78.86 6.0
78.8804 5.0
78.9009 5.0
78.9213 3.0
78.9417 5.0
78.9622 4.0
78.9826 3.0
79.003 6.0
79.0234 3.0
79.0439 6.0
79.0643 4.0
79.0847 8.0
79.1052 6.0
79.1256 6.0
79.146 8.0
79.1665 5.0
79.1869 9.0
79.2073 7.0
79.2278 9.0
79.2482 10.0
79.2686 2.0
79.2891 3.0
79.3095 3.0
79.3299 3.0
79.3504 5.0
79.3708 4.0
79.3912 3.0
79.4117 5.0
79.4321 3.0
79.4525 6.0
79.473 10.0
79.4934 2.0
79.5138 7.0
79.5343 2.0
79.5547 2.0
79.5751 1.0
79.5956 7.0
79.616 3.0
79.6364 4.0
79.6569 4.0
79.6773 2.0
79.6977 6.0
79.7182 3.0
79.7386 6.0
79.759 4.0
79.7795 2.0
79.7999 6.0
79.8203 8.0
79.8408 4.0
79.8612 7.0
79.8816 4.0
79.9021 5.0
79.9225 2.0
79.9429 3.0
79.9633 2.0
79.9838 1.0
80.0042 1.0
80.0246 2.0
80.0451 6.0
80.0655 4.0
80.0859 6.0
80.1064 5.0
80.1268 3.0
80.1472 5.0
80.1677 2.0
80.1881 5.0
80.2085 2.0
80.229 2.0
80.2494 4.0
80.2698 2.0
80.2903 5.0
80.3107 3.0
80.3311 6.0
80.3516 4.0
80.372 8.0
80.3924 4.0
80.4129 6.0
80.4333 3.0
80.4537 4.0
80.4742 3.0
80.4946 4.0
80.515 2.0
80.5355 4.0
80.5559 5.0
80.5763 4.0
80.5968 5.0
80.6172 5.0
80.6376 5.0
80.6581 7.0
80.6785 8.0
80.6989 3.0
80.7194 11.0
80.7398 2.0
80.7602 6.0
80.7807 2.0
80.8011 6.0
80.8215 9.0
80.8419 10.0
80.8624 8.0
80.8828 6.0
80.9032 11.0
80.9237 9.0
80.9441 7.0
80.9645 11.0
80.985 13.0
81.0054 11.0
81.0258 12.0
81.0463 9.0
81.0667 5.0
81.0871 5.0
81.1076 6.0
81.128 9.0
81.1484 6.0
81.1689 7.0
81.1893 8.0
81.2097 8.0
81.2302 4.0
81.2506 5.0
81.271 7.0
81.2915 2.0
81.3119 6.0
81.3323 3.0
81.3528 5.0
81.3732 5.0
81.3936 4.0
81.4141 7.0
81.4345 7.0
81.4549 8.0
81.4754 8.0
81.4958 8.0
81.5162 5.0
81.5367 3.0
81.5571 7.0
81.5775 2.0
81.598 6.0
81.6184 5.0
81.6388 7.0
81.6593 3.0
81.6797 5.0
81.7001 3.0
81.7206 1.0
81.741 3.0
81.7614 10.0
81.7818 5.0
81.8023 5.0
81.8227 2.0
81.8431 5.0
81.8636 7.0
81.884 3.0
81.9044 8.0
81.9249 2.0
81.9453 5.0
81.9657 8.0
81.9862 5.0
82.0066 8.0
82.027 4.0
82.0475 5.0
82.0679 9.0
82.0883 13.0
82.1088 3.0
82.1292 3.0
82.1496 3.0
82.1701 8.0
82.1905 7.0
82.2109 8.0
82.2314 7.0
82.2518 7.0
82.2722 6.0
82.2927 7.0
82.3131 11.0
82.3335 11.0
82.354 14.0
82.3744 9.0
82.3948 16.0
82.4153 9.0
82.4357 9.0
82.4561 10.0
82.4766 12.0
82.497 12.0
82.5174 14.0
82.5379 7.0
82.5583 12.0
82.5787 5.0
82.5992 14.0
82.6196 8.0
82.64 12.0
82.6604 14.0
82.6809 16.0
82.7013 22.0
82.7217 21.0
82.7422 13.0
82.7626 10.0
82.783 31.0
82.8035 38.0
82.8239 44.0
82.8443 46.0
82.8648 59.0
82.8852 62.0
82.9056 59.0
82.9261 36.0
82.9465 47.0
82.9669 33.0
82.9874 26.0
83.0078 25.0
83.0282 26.0
83.0487 28.0
83.0691 31.0
83.0895 31.0
83.11 48.0
83.1304 49.0
83.1508 39.0
83.1713 31.0
83.1917 37.0
83.2121 27.0
83.2326 34.0
83.253 18.0
83.2734 23.0
83.2939 18.0
83.3143 32.0
83.3347 27.0
83.3552 23.0
83.3756 28.0
83.396 23.0
83.4165 26.0
83.4369 15.0
83.4573 21.0
83.4778 20.0
83.4982 12.0
83.5186 18.0
83.5391 15.0
83.5595 14.0
83.5799 19.0
83.6003 23.0
83.6208 23.0
83.6412 15.0
83.6616 22.0
83.6821 20.0
83.7025 16.0
83.7229 14.0
83.7434 11.0
83.7638 4.0
83.7842 4.0
83.8047 1.0
83.8251 12.0
83.8455 5.0
83.866 6.0
83.8864 5.0
83.9068 3.0
83.9273 6.0
83.9477 5.0
83.9681 6.0
83.9886 4.0
84.009 10.0
84.0294 6.0
84.0499 7.0
84.0703 4.0
84.0907 11.0
84.1112 1.0
84.1316 4.0
84.152 8.0
84.1725 4.0
84.1929 6.0
84.2133 7.0
84.2338 3.0
84.2542 6.0
84.2746 5.0
84.2951 2.0
84.3155 3.0
84.3359 2.0
84.3564 3.0
84.3768 5.0
84.3972 7.0
84.4177 5.0
84.4381 8.0
84.4585 5.0
84.4789 4.0
84.4994 1.0
84.5198 5.0
84.5402 6.0
84.5607 2.0
84.5811 6.0
84.6015 5.0
84.622 6.0
84.6424 6.0
84.6628 3.0
84.6833 4.0
84.7037 2.0
84.7241 4.0
84.7446 3.0
84.765 4.0
84.7854 2.0
84.8059 4.0
84.8263 7.0
84.8467 3.0
84.8672 7.0
84.8876 5.0
84.908 2.0
84.9285 3.0
84.9489 6.0
84.9693 9.0
84.9898 7.0
85.0102 2.0
85.0306 5.0
85.0511 4.0
85.0715 6.0
85.0919 4.0
85.1124 5.0
85.1328 3.0
85.1532 4.0
85.1737 6.0
85.1941 8.0
85.2145 7.0
85.235 3.0
85.2554 7.0
85.2758 4.0
85.2963 4.0
85.3167 7.0
85.3371 4.0
85.3576 4.0
85.378 4.0
85.3984 2.0
85.4188 3.0
85.4393 3.0
85.4597 3.0
85.4801 5.0
85.5006 5.0
85.521 5.0
85.5414 3.0
85.5619 4.0
85.5823 2.0
85.6027 4.0
85.6232 7.0
85.6436 5.0
85.664 4.0
85.6845 6.0
85.7049 4.0
85.7253 2.0
85.7458 4.0
85.7662 9.0
85.7866 4.0
85.8071 5.0
85.8275 7.0
85.8479 5.0
85.8684 4.0
85.8888 6.0
85.9092 3.0
85.9297 9.0
85.9501 4.0
85.9705 3.0
85.991 4.0
86.0114 8.0
86.0318 4.0
86.0523 4.0
86.0727 5.0
86.0931 7.0
86.1136 3.0
86.134 4.0
86.1544 8.0
86.1749 5.0
86.1953 9.0
86.2157 6.0
86.2362 7.0
86.2566 8.0
86.277 7.0
86.2975 9.0
86.3179 8.0
86.3383 9.0
86.3587 11.0
86.3792 10.0
86.3996 12.0
86.42 7.0
86.4405 7.0
86.4609 8.0
86.4813 6.0
86.5018 12.0
86.5222 3.0
86.5426 9.0
86.5631 8.0
86.5835 9.0
86.6039 9.0
86.6244 9.0
86.6448 9.0
86.6652 8.0
86.6857 8.0
86.7061 9.0
86.7265 8.0
86.747 3.0
86.7674 3.0
86.7878 7.0
86.8083 3.0
86.8287 5.0
86.8491 11.0
86.8696 6.0
86.89 3.0
86.9104 4.0
86.9309 8.0
86.9513 8.0
86.9717 8.0
86.9922 3.0
87.0126 7.0
87.033 7.0
87.0535 3.0
87.0739 8.0
87.0943 6.0
87.1148 5.0
87.1352 5.0
87.1556 3.0
87.1761 5.0
87.1965 2.0
87.2169 4.0
87.2373 2.0
87.2578 3.0
87.2782 5.0
87.2986 3.0
87.3191 4.0
87.3395 2.0
87.3599 3.0
87.3804 5.0
87.4008 10.0
87.4212 2.0
87.4417 8.0
87.4621 6.0
87.4825 6.0
87.503 8.0
87.5234 9.0
87.5438 4.0
87.5643 2.0
87.5847 11.0
87.6051 3.0
87.6256 2.0
87.646 3.0
87.6664 11.0
87.6869 5.0
87.7073 6.0
87.7277 4.0
87.7482 8.0
87.7686 8.0
87.789 3.0
87.8095 6.0
87.8299 2.0
87.8503 2.0
87.8708 6.0
87.8912 2.0
87.9116 8.0
87.9321 1.0
87.9525 4.0
87.9729 6.0
87.9934 3.0
88.0138 3.0
88.0342 4.0
88.0547 4.0
88.0751 2.0
88.0955 8.0
88.116 5.0
88.1364 4.0
88.1568 5.0
88.1772 3.0
88.1977 7.0
88.2181 3.0
88.2385 4.0
88.259 8.0
88.2794 3.0
88.2998 4.0
88.3203 2.0
88.3407 3.0
88.3611 3.0
88.3816 2.0
88.402 4.0
88.4224 2.0
88.4429 4.0
88.4633 1.0
88.4837 5.0
88.5042 3.0
88.5246 4.0
88.545 1.0
88.5655 4.0
88.5859 4.0
88.6063 6.0
88.6268 1.0
88.6472 1.0
88.6676 5.0
88.6881 8.0
88.7085 6.0
88.7289 7.0
88.7494 5.0
88.7698 9.0
88.7902 5.0
88.8107 3.0
88.8311 6.0
88.8515 5.0
88.872 7.0
88.8924 6.0
88.9128 4.0
88.9333 7.0
88.9537 8.0
88.9741 3.0
88.9946 4.0
89.015 4.0
89.0354 2.0
89.0558 5.0
89.0763 5.0
89.0967 6.0
89.1171 7.0
89.1376 5.0
89.158 2.0
89.1784 1.0
89.1989 4.0
89.2193 3.0
89.2397 5.0
89.2602 2.0
89.2806 2.0
89.301 2.0
89.3215 0.0
89.3419 2.0
89.3623 5.0
89.3828 1.0
89.4032 2.0
89.4236 3.0
89.4441 3.0
89.4645 4.0
89.4849 6.0
89.5054 3.0
89.5258 4.0
89.5462 2.0
89.5667 6.0
89.5871 6.0
89.6075 2.0
89.628 3.0
89.6484 6.0
89.6688 4.0
89.6893 3.0
89.7097 6.0
89.7301 5.0
89.7506 4.0
89.771 4.0
89.7914 3.0
89.8119 2.0
89.8323 5.0
89.8527 5.0
89.8732 5.0
89.8936 4.0
89.914 2.0
89.9345 3.0
89.9549 4.0
89.9753 4.0
89.9957 7.0
90.0162 4.0
90.0366 10.0
90.057 0.0
90.0775 5.0
90.0979 5.0
