9.9 43.0
9.9204 50.0
9.9409 51.0
9.9613 56.0
9.9817 48.0
10.0022 52.0
10.0226 50.0
10.043 47.0
10.0635 47.0
10.0839 46.0
10.1043 54.0
10.1248 58.0
10.1452 45.0
10.1656 55.0
10.1861 42.0
10.2065 46.0
10.2269 45.0
10.2474 61.0
10.2678 43.0
10.2882 53.0
10.3087 39.0
10.3291 59.0
10.3495 43.0
10.3699 59.0
10.3904 34.0
10.4108 44.0
10.4312 45.0
10.4517 61.0
10.4721 41.0
10.4925 35.0
10.513 41.0
10.5334 48.0
10.5538 27.0
10.5743 46.0
10.5947 40.0
10.6151 49.0
10.6356 45.0
10.656 46.0
10.6764 46.0
10.6969 43.0
10.7173 48.0
10.7377 48.0
10.7582 40.0
10.7786 47.0
10.799 34.0
10.8195 47.0
10.8399 40.0
10.8603 43.0
10.8808 40.0
10.9012 41.0
10.9216 49.0
10.9421 45.0
10.9625 45.0
10.9829 52.0
11.0034 45.0
11.0238 44.0
11.0442 51.0
11.0647 41.0
11.0851 43.0
11.1055 32.0
11.126 48.0
11.1464 41.0
11.1668 36.0
11.1873 44.0
11.2077 45.0
11.2281 39.0
11.2486 51.0
11.269 43.0
11.2894 32.0
11.3098 48.0
11.3303 44.0
11.3507 55.0
11.3711 38.0
11.3916 57.0
11.412 51.0
11.4324 42.0
11.4529 59.0
11.4733 45.0
11.4937 49.0
11.5142 36.0
11.5346 47.0
11.555 43.0
11.5755 45.0
11.5959 48.0
11.6163 51.0
11.6368 48.0
11.6572 39.0
11.6776 54.0
11.6981 61.0
11.7185 43.0
11.7389 35.0
11.7594 39.0
11.7798 43.0
11.8002 47.0
11.8207 47.0
11.8411 37.0
11.8615 39.0
11.882 39.0
11.9024 47.0
11.9228 40.0
11.9433 55.0
11.9637 36.0
11.9841 45.0
12.0046 37.0
12.025 42.0
12.0454 44.0
12.0659 34.0
12.0863 49.0
12.1067 49.0
12.1272 44.0
12.1476 41.0
12.168 36.0
12.1884 43.0
12.2089 46.0
12.2293 54.0
12.2497 39.0
12.2702 36.0
12.2906 54.0
12.311 40.0
12.3315 42.0
12.3519 58.0
12.3723 48.0
12.3928 34.0
12.4132 51.0
12.4336 37.0
12.4541 35.0
12.4745 36.0
12.4949 60.0
12.5154 49.0
12.5358 52.0
12.5562 43.0
12.5767 49.0
12.5971 34.0
12.6175 46.0
12.638 46.0
12.6584 36.0
12.6788 49.0
12.6993 44.0
12.7197 32.0
12.7401 36.0
12.7606 40.0
12.781 50.0
12.8014 38.0
12.8219 32.0
12.8423 43.0
12.8627 38.0
12.8832 51.0
12.9036 36.0
12.924 33.0
12.9445 41.0
12.9649 49.0
12.9853 45.0
13.0058 41.0
13.0262 39.0
13.0466 46.0
13.0671 40.0
13.0875 51.0
13.1079 49.0
13.1283 43.0
13.1488 39.0
13.1692 34.0
13.1896 55.0
13.2101 41.0
13.2305 42.0
13.2509 34.0
13.2714 46.0
13.2918 40.0
13.3122 36.0
13.3327 45.0
13.3531 43.0
13.3735 29.0
13.394 37.0
13.4144 43.0
13.4348 41.0
13.4553 38.0
13.4757 35.0
13.4961 53.0
13.5166 41.0
13.537 35.0
13.5574 43.0
13.5779 43.0
13.5983 43.0
13.6187 38.0
13.6392 49.0
13.6596 39.0
13.68 43.0
13.7005 46.0
13.7209 42.0
13.7413 40.0
13.7618 38.0
13.7822 39.0
13.8026 49.0
13.8231 47.0
13.8435 37.0
13.8639 37.0
13.8844 33.0
13.9048 40.0
13.9252 32.0
13.9457 42.0
13.9661 43.0
13.9865 35.0
14.007 34.0
14.0274 37.0
14.0478 44.0
14.0682 36.0
14.0887 52.0
14.1091 29.0
14.1295 50.0
14.15 42.0
14.1704 50.0
14.1908 43.0
14.2113 39.0
14.2317 40.0
14.2521 42.0
14.2726 41.0
14.293 60.0
14.3134 44.0
14.3339 39.0
14.3543 34.0
14.3747 31.0
14.3952 53.0
14.4156 36.0
14.436 38.0
14.4565 28.0
14.4769 45.0
14.4973 39.0
14.5178 35.0
14.5382 40.0
14.5586 46.0
14.5791 36.0
14.5995 36.0
14.6199 32.0
14.6404 41.0
14.6608 34.0
14.6812 38.0
14.7017 29.0
14.7221 52.0
14.7425 43.0
14.763 34.0
14.7834 40.0
14.8038 32.0
14.8243 28.0
14.8447 45.0
14.8651 34.0
14.8856 39.0
14.906 43.0
14.9264 28.0
14.9468 50.0
14.9673 50.0
14.9877 31.0
15.0081 31.0
15.0286 34.0
15.049 34.0
15.0694 33.0
15.0899 40.0
15.1103 44.0
15.1307 37.0
15.1512 38.0
15.1716 36.0
15.192 34.0
15.2125 43.0
15.2329 38.0
15.2533 36.0
15.2738 31.0
15.2942 40.0
15.3146 50.0
15.3351 39.0
15.3555 33.0
15.3759 39.0
15.3964 40.0
15.4168 33.0
15.4372 30.0
15.4577 34.0
15.4781 50.0
15.4985 43.0
15.519 36.0
15.5394 33.0
15.5598 34.0
15.5803 41.0
15.6007 33.0
15.6211 25.0
15.6416 55.0
15.662 56.0
15.6824 26.0
15.7029 41.0
15.7233 36.0
15.7437 36.0
15.7642 24.0
15.7846 41.0
15.805 35.0
15.8255 43.0
15.8459 27.0
15.8663 35.0
15.8867 50.0
15.9072 46.0
15.9276 42.0
15.948 31.0
15.9685 27.0
15.9889 50.0
16.0093 36.0
16.0298 37.0
16.0502 46.0
16.0706 40.0
16.0911 25.0
16.1115 40.0
16.1319 44.0
16.1524 48.0
16.1728 45.0
16.1932 32.0
16.2137 47.0
16.2341 40.0
16.2545 45.0
16.275 32.0
16.2954 41.0
16.3158 41.0
16.3363 34.0
16.3567 35.0
16.3771 34.0
16.3976 27.0
16.418 34.0
16.4384 39.0
16.4589 34.0
16.4793 40.0
16.4997 22.0
16.5202 28.0
16.5406 39.0
16.561 42.0
16.5815 25.0
16.6019 38.0
16.6223 28.0
16.6428 54.0
16.6632 50.0
16.6836 51.0
16.7041 40.0
16.7245 45.0
16.7449 37.0
16.7653 39.0
16.7858 41.0
16.8062 39.0
16.8266 39.0
16.8471 30.0
16.8675 30.0
16.8879 37.0
16.9084 42.0
16.9288 37.0
16.9492 34.0
16.9697 40.0
16.9901 46.0
17.0105 25.0
17.031 38.0
17.0514 33.0
17.0718 32.0
17.0923 42.0
17.1127 49.0
17.1331 40.0
17.1536 43.0
17.174 34.0
17.1944 36.0
17.2149 31.0
17.2353 39.0
17.2557 37.0
17.2762 39.0
17.2966 36.0
17.317 33.0
17.3375 31.0
17.3579 28.0
17.3783 34.0
17.3988 36.0
17.4192 43.0
17.4396 44.0
17.4601 36.0
17.4805 40.0
17.5009 49.0
17.5214 47.0
17.5418 38.0
17.5622 46.0
17.5827 46.0
17.6031 39.0
17.6235 35.0
17.644 37.0
17.6644 41.0
17.6848 35.0
17.7052 46.0
17.7257 35.0
17.7461 43.0
17.7665 47.0
17.787 37.0
17.8074 31.0
17.8278 39.0
17.8483 52.0
17.8687 38.0
17.8891 43.0
17.9096 37.0
17.93 40.0
17.9504 29.0
17.9709 48.0
17.9913 52.0
18.0117 51.0
18.0322 41.0
18.0526 50.0
18.073 41.0
18.0935 46.0
18.1139 53.0
18.1343 42.0
18.1548 41.0
18.1752 46.0
18.1956 50.0
18.2161 45.0
18.2365 50.0
18.2569 36.0
18.2774 49.0
18.2978 33.0
18.3182 34.0
18.3387 42.0
18.3591 43.0
18.3795 37.0
18.4 39.0
18.4204 42.0
18.4408 39.0
18.4613 37.0
18.4817 44.0
18.5021 43.0
18.5226 38.0
18.543 51.0
18.5634 49.0
18.5839 30.0
18.6043 39.0
18.6247 40.0
18.6451 36.0
18.6656 34.0
18.686 36.0
18.7064 42.0
18.7269 38.0
18.7473 50.0
18.7677 41.0
18.7882 43.0
18.8086 29.0
18.829 43.0
18.8495 37.0
18.8699 33.0
18.8903 41.0
18.9108 40.0
18.9312 43.0
18.9516 37.0
18.9721 45.0
18.9925 69.0
19.0129 81.0
19.0334 103.0
19.0538 95.0
19.0742 129.0
19.0947 107.0
19.1151 102.0
19.1355 76.0
19.156 70.0
19.1764 63.0
19.1968 52.0
19.2173 49.0
19.2377 52.0
19.2581 44.0
19.2786 31.0
19.299 56.0
19.3194 44.0
19.3399 51.0
19.3603 47.0
19.3807 37.0
19.4012 20.0
19.4216 41.0
19.442 29.0
19.4625 48.0
19.4829 32.0
19.5033 37.0
19.5237 44.0
19.5442 55.0
19.5646 34.0
19.585 43.0
19.6055 40.0
19.6259 34.0
19.6463 40.0
19.6668 37.0
19.6872 37.0
19.7076 39.0
19.7281 47.0
19.7485 41.0
19.7689 46.0
19.7894 35.0
19.8098 40.0
19.8302 44.0
19.8507 35.0
19.8711 37.0
19.8915 54.0
19.912 46.0
19.9324 42.0
19.9528 41.0
19.9733 36.0
19.9937 39.0
20.0141 47.0
20.0346 42.0
20.055 50.0
20.0754 38.0
20.0959 50.0
20.1163 37.0
20.1367 48.0
20.1572 42.0
20.1776 31.0
20.198 42.0
20.2185 46.0
20.2389 39.0
20.2593 29.0
20.2798 41.0
20.3002 42.0
20.3206 50.0
20.3411 34.0
20.3615 33.0
20.3819 40.0
20.4024 40.0
20.4228 47.0
20.4432 51.0
20.4636 35.0
20.4841 39.0
20.5045 45.0
20.5249 37.0
20.5454 39.0
20.5658 41.0
20.5862 42.0
20.6067 40.0
20.6271 34.0
20.6475 35.0
20.668 45.0
20.6884 35.0
20.7088 46.0
20.7293 31.0
20.7497 37.0
20.7701 37.0
20.7906 29.0
20.811 40.0
20.8314 34.0
20.8519 33.0
20.8723 39.0
20.8927 41.0
20.9132 42.0
20.9336 51.0
20.954 42.0
20.9745 46.0
20.9949 35.0
21.0153 51.0
21.0358 40.0
21.0562 37.0
21.0766 37.0
21.0971 48.0
21.1175 46.0
21.1379 45.0
21.1584 44.0
21.1788 39.0
21.1992 44.0
21.2197 45.0
21.2401 42.0
21.2605 35.0
21.281 36.0
21.3014 48.0
21.3218 46.0
21.3422 54.0
21.3627 66.0
21.3831 106.0
21.4035 104.0
21.424 89.0
21.4444 100.0
21.4648 75.0
21.4853 72.0
21.5057 68.0
21.5261 45.0
21.5466 49.0
21.567 48.0
21.5874 51.0
21.6079 38.0
21.6283 28.0
21.6487 48.0
21.6692 36.0
21.6896 34.0
21.71 32.0
21.7305 49.0
21.7509 44.0
21.7713 41.0
21.7918 52.0
21.8122 41.0
21.8326 49.0
21.8531 35.0
21.8735 43.0
21.8939 35.0
21.9144 39.0
21.9348 41.0
21.9552 40.0
21.9757 49.0
21.9961 40.0
22.0165 39.0
22.037 40.0
22.0574 32.0
22.0778 39.0
22.0983 36.0
22.1187 36.0
22.1391 48.0
22.1596 38.0
22.18 34.0
22.2004 36.0
22.2209 37.0
22.2413 35.0
22.2617 34.0
22.2821 30.0
22.3026 33.0
22.323 37.0
22.3434 40.0
22.3639 26.0
22.3843 35.0
22.4047 32.0
22.4252 31.0
22.4456 31.0
22.466 32.0
22.4865 38.0
22.5069 34.0
22.5273 37.0
22.5478 33.0
22.5682 42.0
22.5886 36.0
22.6091 41.0
22.6295 42.0
22.6499 33.0
22.6704 33.0
22.6908 31.0
22.7112 43.0
22.7317 40.0
22.7521 30.0
22.7725 31.0
22.793 39.0
22.8134 37.0
22.8338 47.0
22.8543 39.0
22.8747 36.0
22.8951 44.0
22.9156 29.0
22.936 30.0
22.9564 38.0
22.9769 37.0
22.9973 30.0
23.0177 41.0
23.0382 37.0
23.0586 31.0
23.079 31.0
23.0995 30.0
23.1199 34.0
23.1403 40.0
23.1608 35.0
23.1812 28.0
23.2016 43.0
23.222 42.0
23.2425 25.0
23.2629 45.0
23.2833 31.0
23.3038 39.0
23.3242 43.0
23.3446 32.0
23.3651 43.0
23.3855 40.0
23.4059 39.0
23.4264 46.0
23.4468 43.0
23.4672 50.0
23.4877 37.0
23.5081 49.0
23.5285 43.0
23.549 33.0
23.5694 46.0
23.5898 42.0
23.6103 32.0
23.6307 40.0
23.6511 41.0
23.6716 30.0
23.692 37.0
23.7124 29.0
23.7329 23.0
23.7533 30.0
23.7737 38.0
23.7942 43.0
23.8146 29.0
23.835 30.0
23.8555 46.0
23.8759 32.0
23.8963 39.0
23.9168 34.0
23.9372 34.0
23.9576 26.0
23.9781 27.0
23.9985 30.0
24.0189 35.0
24.0394 31.0
24.0598 42.0
24.0802 37.0
24.1006 40.0
24.1211 43.0
24.1415 40.0
24.1619 34.0
24.1824 44.0
24.2028 34.0
24.2232 43.0
24.2437 36.0
24.2641 24.0
24.2845 30.0
24.305 41.0
24.3254 35.0
24.3458 36.0
24.3663 31.0
24.3867 36.0
24.4071 37.0
24.4276 44.0
24.448 44.0
24.4684 30.0
24.4889 39.0
24.5093 35.0
24.5297 40.0
24.5502 43.0
24.5706 40.0
24.591 37.0
24.6115 41.0
24.6319 51.0
24.6523 37.0
24.6728 33.0
24.6932 42.0
24.7136 35.0
24.7341 43.0
24.7545 42.0
24.7749 31.0
24.7954 31.0
24.8158 36.0
24.8362 31.0
24.8567 36.0
24.8771 38.0
24.8975 38.0
24.918 48.0
24.9384 41.0
24.9588 29.0
24.9793 33.0
24.9997 38.0
25.0201 39.0
25.0405 25.0
25.061 46.0
25.0814 35.0
25.1018 36.0
25.1223 38.0
25.1427 32.0
25.1631 33.0
25.1836 34.0
25.204 36.0
25.2244 34.0
25.2449 32.0
25.2653 38.0
25.2857 26.0
25.3062 44.0
25.3266 32.0
25.347 40.0
25.3675 31.0
25.3879 33.0
25.4083 36.0
25.4288 42.0
25.4492 33.0
25.4696 40.0
25.4901 32.0
25.5105 30.0
25.5309 45.0
25.5514 34.0
25.5718 32.0
25.5922 37.0
25.6127 38.0
25.6331 45.0
25.6535 47.0
25.674 51.0
25.6944 44.0
25.7148 51.0
25.7353 42.0
25.7557 36.0
25.7761 36.0
25.7966 35.0
25.817 40.0
25.8374 29.0
25.8579 50.0
25.8783 29.0
25.8987 41.0
25.9191 44.0
25.9396 33.0
25.96 44.0
25.9804 36.0
26.0009 33.0
26.0213 46.0
26.0417 33.0
26.0622 37.0
26.0826 41.0
26.103 49.0
26.1235 45.0
26.1439 47.0
26.1643 35.0
26.1848 45.0
26.2052 39.0
26.2256 35.0
26.2461 37.0
26.2665 45.0
26.2869 37.0
26.3074 36.0
26.3278 32.0
26.3482 48.0
26.3687 43.0
26.3891 48.0
26.4095 54.0
26.43 40.0
26.4504 31.0
26.4708 40.0
26.4913 44.0
26.5117 39.0
26.5321 36.0
26.5526 36.0
26.573 29.0
26.5934 35.0
26.6139 28.0
26.6343 39.0
26.6547 46.0
26.6752 41.0
26.6956 44.0
26.716 42.0
26.7365 40.0
26.7569 43.0
26.7773 44.0
26.7978 25.0
26.8182 37.0
26.8386 26.0
26.859 28.0
26.8795 34.0
26.8999 37.0
26.9203 43.0
26.9408 35.0
26.9612 51.0
26.9816 33.0
27.0021 32.0
27.0225 41.0
27.0429 47.0
27.0634 23.0
27.0838 45.0
27.1042 48.0
27.1247 33.0
27.1451 42.0
27.1655 28.0
27.186 25.0
27.2064 39.0
27.2268 39.0
27.2473 50.0
27.2677 43.0
27.2881 34.0
27.3086 36.0
27.329 38.0
27.3494 49.0
27.3699 32.0
27.3903 40.0
27.4107 36.0
27.4312 34.0
27.4516 44.0
27.472 41.0
27.4925 39.0
27.5129 41.0
27.5333 36.0
27.5538 42.0
27.5742 44.0
27.5946 42.0
27.6151 34.0
27.6355 38.0
27.6559 38.0
27.6764 43.0
27.6968 42.0
27.7172 37.0
27.7377 38.0
27.7581 38.0
27.7785 34.0
27.7989 31.0
27.8194 38.0
27.8398 31.0
27.8602 37.0
27.8807 37.0
27.9011 22.0
27.9215 43.0
27.942 28.0
27.9624 33.0
27.9828 25.0
28.0033 33.0
28.0237 41.0
28.0441 25.0
28.0646 29.0
28.085 29.0
28.1054 45.0
28.1259 27.0
28.1463 33.0
28.1667 47.0
28.1872 40.0
28.2076 38.0
28.228 34.0
28.2485 42.0
28.2689 35.0
28.2893 49.0
28.3098 35.0
28.3302 37.0
28.3506 24.0
28.3711 38.0
28.3915 31.0
28.4119 26.0
28.4324 33.0
28.4528 33.0
28.4732 38.0
28.4937 42.0
28.5141 48.0
28.5345 30.0
28.555 43.0
28.5754 31.0
28.5958 33.0
28.6163 42.0
28.6367 36.0
28.6571 35.0
28.6775 38.0
28.698 25.0
28.7184 39.0
28.7388 42.0
28.7593 33.0
28.7797 40.0
28.8001 40.0
28.8206 36.0
28.841 32.0
28.8614 30.0
28.8819 36.0
28.9023 47.0
28.9227 30.0
28.9432 46.0
28.9636 48.0
28.984 37.0
29.0045 34.0
29.0249 40.0
29.0453 20.0
29.0658 34.0
29.0862 36.0
29.1066 37.0
29.1271 38.0
29.1475 22.0
29.1679 22.0
29.1884 37.0
29.2088 35.0
29.2292 39.0
29.2497 35.0
29.2701 52.0
29.2905 40.0
29.311 38.0
29.3314 44.0
29.3518 32.0
29.3723 37.0
29.3927 39.0
29.4131 40.0
29.4336 20.0
29.454 54.0
29.4744 35.0
29.4949 47.0
29.5153 35.0
29.5357 38.0
29.5562 51.0
29.5766 49.0
29.597 41.0
29.6174 40.0
29.6379 40.0
29.6583 44.0
29.6787 42.0
29.6992 36.0
29.7196 37.0
29.74 32.0
29.7605 34.0
29.7809 35.0
29.8013 45.0
29.8218 32.0
29.8422 31.0
29.8626 40.0
29.8831 41.0
29.9035 29.0
29.9239 44.0
29.9444 37.0
29.9648 37.0
29.9852 46.0
30.0057 42.0
30.0261 33.0
30.0465 37.0
30.067 40.0
30.0874 35.0
30.1078 45.0
30.1283 31.0
30.1487 30.0
30.1691 37.0
30.1896 44.0
30.21 38.0
30.2304 39.0
30.2509 38.0
30.2713 44.0
30.2917 34.0
30.3122 32.0
30.3326 44.0
30.353 42.0
30.3735 26.0
30.3939 38.0
30.4143 43.0
30.4348 26.0
30.4552 42.0
30.4756 39.0
30.496 46.0
30.5165 45.0
30.5369 37.0
30.5573 40.0
30.5778 48.0
30.5982 48.0
30.6186 62.0
30.6391 57.0
30.6595 71.0
30.6799 61.0
30.7004 71.0
30.7208 63.0
30.7412 52.0
30.7617 44.0
30.7821 43.0
30.8025 49.0
30.823 44.0
30.8434 45.0
30.8638 46.0
30.8843 41.0
30.9047 41.0
30.9251 42.0
30.9456 45.0
30.966 52.0
30.9864 37.0
31.0069 34.0
31.0273 41.0
31.0477 38.0
31.0682 36.0
31.0886 41.0
31.109 37.0
31.1295 32.0
31.1499 44.0
31.1703 50.0
31.1908 63.0
31.2112 54.0
31.2316 49.0
31.2521 72.0
31.2725 78.0
31.2929 105.0
31.3134 132.0
31.3338 164.0
31.3542 159.0
31.3747 163.0
31.3951 129.0
31.4155 139.0
31.4359 127.0
31.4564 95.0
31.4768 81.0
31.4972 63.0
31.5177 57.0
31.5381 57.0
31.5585 43.0
31.579 50.0
31.5994 60.0
31.6198 50.0
31.6403 51.0
31.6607 78.0
31.6811 40.0
31.7016 65.0
31.722 63.0
31.7424 75.0
31.7629 88.0
31.7833 108.0
31.8037 108.0
31.8242 128.0
31.8446 112.0
31.865 124.0
31.8855 97.0
31.9059 83.0
31.9263 85.0
31.9468 65.0
31.9672 75.0
31.9876 76.0
32.0081 53.0
32.0285 55.0
32.0489 53.0
32.0694 48.0
32.0898 46.0
32.1102 36.0
32.1307 47.0
32.1511 41.0
32.1715 40.0
32.192 29.0
32.2124 33.0
32.2328 44.0
32.2533 36.0
32.2737 34.0
32.2941 36.0
32.3146 28.0
32.335 39.0
32.3554 36.0
32.3758 29.0
32.3963 37.0
32.4167 31.0
32.4371 35.0
32.4576 39.0
32.478 31.0
32.4984 34.0
32.5189 30.0
32.5393 34.0
32.5597 34.0
32.5802 41.0
32.6006 32.0
32.621 36.0
32.6415 42.0
32.6619 38.0
32.6823 32.0
32.7028 28.0
32.7232 30.0
32.7436 39.0
32.7641 30.0
32.7845 35.0
32.8049 35.0
32.8254 45.0
32.8458 52.0
32.8662 45.0
32.8867 33.0
32.9071 25.0
32.9275 38.0
32.948 35.0
32.9684 25.0
32.9888 41.0
33.0093 32.0
33.0297 40.0
33.0501 43.0
33.0706 45.0
33.091 49.0
33.1114 42.0
33.1319 25.0
33.1523 33.0
33.1727 41.0
33.1932 27.0
33.2136 26.0
33.234 23.0
33.2544 46.0
33.2749 32.0
33.2953 32.0
33.3157 27.0
33.3362 37.0
33.3566 34.0
33.377 40.0
33.3975 37.0
33.4179 35.0
33.4383 40.0
33.4588 40.0
33.4792 32.0
33.4996 42.0
33.5201 28.0
33.5405 30.0
33.5609 39.0
33.5814 43.0
33.6018 38.0
33.6222 35.0
33.6427 38.0
33.6631 42.0
33.6835 44.0
33.704 39.0
33.7244 46.0
33.7448 40.0
33.7653 36.0
33.7857 39.0
33.8061 39.0
33.8266 32.0
33.847 40.0
33.8674 47.0
33.8879 46.0
33.9083 30.0
33.9287 33.0
33.9492 38.0
33.9696 33.0
33.99 43.0
34.0105 40.0
34.0309 53.0
34.0513 57.0
34.0718 43.0
34.0922 54.0
34.1126 39.0
34.1331 40.0
34.1535 60.0
34.1739 48.0
34.1943 45.0
34.2148 43.0
34.2352 62.0
34.2556 55.0
34.2761 40.0
34.2965 54.0
34.3169 28.0
34.3374 40.0
34.3578 27.0
34.3782 41.0
34.3987 28.0
34.4191 50.0
34.4395 30.0
34.46 19.0
34.4804 29.0
34.5008 39.0
34.5213 35.0
34.5417 42.0
34.5621 35.0
34.5826 37.0
34.603 39.0
34.6234 40.0
34.6439 40.0
34.6643 35.0
34.6847 44.0
34.7052 39.0
34.7256 42.0
34.746 32.0
34.7665 46.0
34.7869 35.0
34.8073 41.0
34.8278 33.0
34.8482 47.0
34.8686 38.0
34.8891 39.0
34.9095 27.0
34.9299 32.0
34.9504 41.0
34.9708 39.0
34.9912 39.0
35.0117 33.0
35.0321 31.0
35.0525 37.0
35.0729 28.0
35.0934 41.0
35.1138 35.0
35.1342 26.0
35.1547 38.0
35.1751 41.0
35.1955 40.0
35.216 34.0
35.2364 40.0
35.2568 42.0
35.2773 46.0
35.2977 40.0
35.3181 43.0
35.3386 52.0
35.359 50.0
35.3794 48.0
35.3999 55.0
35.4203 42.0
35.4407 42.0
35.4612 44.0
35.4816 41.0
35.502 42.0
35.5225 33.0
35.5429 30.0
35.5633 47.0
35.5838 42.0
35.6042 44.0
35.6246 28.0
35.6451 42.0
35.6655 42.0
35.6859 43.0
35.7064 43.0
35.7268 36.0
35.7472 28.0
35.7677 30.0
35.7881 35.0
35.8085 35.0
35.829 51.0
35.8494 29.0
35.8698 43.0
35.8903 41.0
35.9107 38.0
35.9311 43.0
35.9516 33.0
35.972 42.0
35.9924 35.0
36.0128 36.0
36.0333 33.0
36.0537 33.0
36.0741 62.0
36.0946 57.0
36.115 81.0
36.1354 106.0
36.1559 112.0
36.1763 94.0
36.1967 70.0
36.2172 90.0
36.2376 74.0
36.258 84.0
36.2785 61.0
36.2989 48.0
36.3193 38.0
36.3398 42.0
36.3602 34.0
36.3806 47.0
36.4011 44.0
36.4215 43.0
36.4419 42.0
36.4624 48.0
36.4828 54.0
36.5032 59.0
36.5237 45.0
36.5441 54.0
36.5645 49.0
36.585 60.0
36.6054 57.0
36.6258 45.0
36.6463 69.0
36.6667 58.0
36.6871 75.0
36.7076 65.0
36.728 74.0
36.7484 72.0
36.7689 91.0
36.7893 95.0
36.8097 120.0
36.8302 121.0
36.8506 188.0
36.871 251.0
36.8915 313.0
36.9119 410.0
36.9323 404.0
36.9527 384.0
36.9732 311.0
36.9936 304.0
37.014 287.0
37.0345 251.0
37.0549 189.0
37.0753 166.0
37.0958 125.0
37.1162 113.0
37.1366 76.0
37.1571 70.0
37.1775 75.0
37.1979 52.0
37.2184 54.0
37.2388 60.0
37.2592 52.0
37.2797 63.0
37.3001 38.0
37.3205 41.0
37.341 45.0
37.3614 39.0
37.3818 34.0
37.4023 41.0
37.4227 41.0
37.4431 44.0
37.4636 38.0
37.484 38.0
37.5044 43.0
37.5249 34.0
37.5453 43.0
37.5657 28.0
37.5862 39.0
37.6066 31.0
37.627 44.0
37.6475 34.0
37.6679 39.0
37.6883 35.0
37.7088 24.0
37.7292 34.0
37.7496 33.0
37.7701 37.0
37.7905 29.0
37.8109 28.0
37.8313 39.0
37.8518 30.0
37.8722 27.0
37.8926 40.0
37.9131 30.0
37.9335 42.0
37.9539 36.0
37.9744 26.0
37.9948 22.0
38.0152 44.0
38.0357 29.0
38.0561 28.0
38.0765 33.0
38.097 47.0
38.1174 28.0
38.1378 22.0
38.1583 26.0
38.1787 35.0
38.1991 30.0
38.2196 28.0
38.24 17.0
38.2604 30.0
38.2809 33.0
38.3013 34.0
38.3217 33.0
38.3422 22.0
38.3626 35.0
38.383 45.0
38.4035 38.0
38.4239 26.0
38.4443 32.0
38.4648 33.0
38.4852 43.0
38.5056 38.0
38.5261 42.0
38.5465 37.0
38.5669 37.0
38.5874 51.0
38.6078 59.0
38.6282 69.0
38.6487 66.0
38.6691 78.0
38.6895 57.0
38.71 55.0
38.7304 44.0
38.7508 51.0
38.7712 51.0
38.7917 37.0
38.8121 38.0
38.8325 34.0
38.853 35.0
38.8734 38.0
38.8938 36.0
38.9143 44.0
38.9347 27.0
38.9551 32.0
38.9756 38.0
38.996 19.0
39.0164 45.0
39.0369 35.0
39.0573 26.0
39.0777 37.0
39.0982 30.0
39.1186 34.0
39.139 31.0
39.1595 29.0
39.1799 38.0
39.2003 29.0
39.2208 29.0
39.2412 36.0
39.2616 43.0
39.2821 44.0
39.3025 36.0
39.3229 42.0
39.3434 30.0
39.3638 30.0
39.3842 36.0
39.4047 29.0
39.4251 38.0
39.4455 30.0
39.466 39.0
39.4864 43.0
39.5068 33.0
39.5273 34.0
39.5477 42.0
39.5681 48.0
39.5886 48.0
39.609 45.0
39.6294 44.0
39.6498 50.0
39.6703 52.0
39.6907 49.0
39.7111 44.0
39.7316 42.0
39.752 35.0
39.7724 49.0
39.7929 43.0
39.8133 47.0
39.8337 40.0
39.8542 32.0
39.8746 32.0
39.895 42.0
39.9155 34.0
39.9359 44.0
39.9563 32.0
39.9768 35.0
39.9972 31.0
40.0176 38.0
40.0381 29.0
40.0585 31.0
40.0789 33.0
40.0994 44.0
40.1198 49.0
40.1402 40.0
40.1607 37.0
40.1811 35.0
40.2015 34.0
40.222 33.0
40.2424 29.0
40.2628 31.0
40.2833 31.0
40.3037 34.0
40.3241 30.0
40.3446 39.0
40.365 34.0
40.3854 41.0
40.4059 29.0
40.4263 32.0
40.4467 37.0
40.4672 28.0
40.4876 25.0
40.508 35.0
40.5285 37.0
40.5489 35.0
40.5693 34.0
40.5897 41.0
40.6102 27.0
40.6306 35.0
40.651 39.0
40.6715 49.0
40.6919 32.0
40.7123 22.0
40.7328 36.0
40.7532 23.0
40.7736 27.0
40.7941 29.0
40.8145 32.0
40.8349 36.0
40.8554 32.0
40.8758 34.0
40.8962 34.0
40.9167 31.0
40.9371 33.0
40.9575 45.0
40.978 34.0
40.9984 28.0
41.0188 29.0
41.0393 35.0
41.0597 35.0
41.0801 29.0
41.1006 27.0
41.121 28.0
41.1414 32.0
41.1619 39.0
41.1823 29.0
41.2027 32.0
41.2232 38.0
41.2436 37.0
41.264 30.0
41.2845 28.0
41.3049 27.0
41.3253 43.0
41.3458 35.0
41.3662 42.0
41.3866 35.0
41.4071 34.0
41.4275 26.0
41.4479 39.0
41.4684 29.0
41.4888 29.0
41.5092 31.0
41.5296 37.0
41.5501 31.0
41.5705 29.0
41.5909 30.0
41.6114 29.0
41.6318 28.0
41.6522 40.0
41.6727 34.0
41.6931 37.0
41.7135 29.0
41.734 39.0
41.7544 35.0
41.7748 41.0
41.7953 31.0
41.8157 47.0
41.8361 33.0
41.8566 35.0
41.877 37.0
41.8974 31.0
41.9179 36.0
41.9383 28.0
41.9587 29.0
41.9792 31.0
41.9996 37.0
42.02 34.0
42.0405 35.0
42.0609 32.0
42.0813 32.0
42.1018 26.0
42.1222 39.0
42.1426 34.0
42.1631 30.0
42.1835 32.0
42.2039 28.0
42.2244 38.0
42.2448 46.0
42.2652 36.0
42.2857 28.0
42.3061 26.0
42.3265 33.0
42.347 37.0
42.3674 31.0
42.3878 41.0
42.4082 50.0
42.4287 30.0
42.4491 41.0
42.4695 38.0
42.49 29.0
42.5104 34.0
42.5308 29.0
42.5513 44.0
42.5717 32.0
42.5921 35.0
42.6126 40.0
42.633 36.0
42.6534 46.0
42.6739 37.0
42.6943 39.0
42.7147 30.0
42.7352 29.0
42.7556 34.0
42.776 26.0
42.7965 43.0
42.8169 30.0
42.8373 33.0
42.8578 37.0
42.8782 41.0
42.8986 39.0
42.9191 36.0
42.9395 30.0
42.9599 30.0
42.9804 33.0
43.0008 45.0
43.0212 26.0
43.0417 36.0
43.0621 30.0
43.0825 42.0
43.103 37.0
43.1234 31.0
43.1438 30.0
43.1643 30.0
43.1847 30.0
43.2051 29.0
43.2256 38.0
43.246 24.0
43.2664 42.0
43.2869 32.0
43.3073 49.0
43.3277 33.0
43.3481 36.0
43.3686 21.0
43.389 33.0
43.4094 37.0
43.4299 33.0
43.4503 40.0
43.4707 35.0
43.4912 33.0
43.5116 44.0
43.532 39.0
43.5525 44.0
43.5729 30.0
43.5933 36.0
43.6138 30.0
43.6342 37.0
43.6546 44.0
43.6751 42.0
43.6955 39.0
43.7159 35.0
43.7364 38.0
43.7568 28.0
43.7772 32.0
43.7977 31.0
43.8181 34.0
43.8385 32.0
43.859 44.0
43.8794 31.0
43.8998 35.0
43.9203 42.0
43.9407 25.0
43.9611 38.0
43.9816 39.0
44.002 29.0
44.0224 40.0
44.0429 34.0
44.0633 30.0
44.0837 38.0
44.1042 36.0
44.1246 33.0
44.145 38.0
44.1655 23.0
44.1859 39.0
44.2063 37.0
44.2267 30.0
44.2472 27.0
44.2676 36.0
44.288 28.0
44.3085 31.0
44.3289 30.0
44.3493 27.0
44.3698 32.0
44.3902 28.0
44.4106 38.0
44.4311 32.0
44.4515 27.0
44.4719 40.0
44.4924 42.0
44.5128 36.0
44.5332 37.0
44.5537 37.0
44.5741 32.0
44.5945 31.0
44.615 35.0
44.6354 41.0
44.6558 36.0
44.6763 37.0
44.6967 46.0
44.7171 47.0
44.7376 48.0
44.758 43.0
44.7784 48.0
44.7989 51.0
44.8193 68.0
44.8397 84.0
44.8602 104.0
44.8806 87.0
44.901 85.0
44.9215 76.0
44.9419 84.0
44.9623 107.0
44.9828 92.0
45.0032 65.0
45.0236 66.0
45.0441 63.0
45.0645 49.0
45.0849 44.0
45.1054 50.0
45.1258 39.0
45.1462 36.0
45.1666 48.0
45.1871 34.0
45.2075 31.0
45.2279 24.0
45.2484 41.0
45.2688 32.0
45.2892 35.0
45.3097 40.0
45.3301 30.0
45.3505 34.0
45.371 41.0
45.3914 29.0
45.4118 25.0
45.4323 34.0
45.4527 28.0
45.4731 37.0
45.4936 30.0
45.514 22.0
45.5344 32.0
45.5549 26.0
45.5753 28.0
45.5957 26.0
45.6162 40.0
45.6366 30.0
45.657 31.0
45.6775 34.0
45.6979 29.0
45.7183 37.0
45.7388 28.0
45.7592 30.0
45.7796 33.0
45.8001 26.0
45.8205 31.0
45.8409 31.0
45.8614 34.0
45.8818 35.0
45.9022 31.0
45.9227 31.0
45.9431 39.0
45.9635 29.0
45.984 25.0
46.0044 32.0
46.0248 34.0
46.0453 28.0
46.0657 24.0
46.0861 28.0
46.1065 35.0
46.127 39.0
46.1474 33.0
46.1678 36.0
46.1883 24.0
46.2087 29.0
46.2291 32.0
46.2496 22.0
46.27 39.0
46.2904 20.0
46.3109 31.0
46.3313 25.0
46.3517 20.0
46.3722 36.0
46.3926 34.0
46.413 29.0
46.4335 23.0
46.4539 27.0
46.4743 21.0
46.4948 29.0
46.5152 30.0
46.5356 27.0
46.5561 28.0
46.5765 37.0
46.5969 35.0
46.6174 27.0
46.6378 48.0
46.6582 37.0
46.6787 26.0
46.6991 36.0
46.7195 34.0
46.74 32.0
46.7604 39.0
46.7808 23.0
46.8013 31.0
46.8217 29.0
46.8421 38.0
46.8626 26.0
46.883 32.0
46.9034 26.0
46.9239 29.0
46.9443 26.0
46.9647 22.0
46.9851 31.0
47.0056 27.0
47.026 32.0
47.0464 31.0
47.0669 33.0
47.0873 26.0
47.1077 34.0
47.1282 31.0
47.1486 27.0
47.169 23.0
47.1895 21.0
47.2099 34.0
47.2303 36.0
47.2508 25.0
47.2712 28.0
47.2916 31.0
47.3121 41.0
47.3325 21.0
47.3529 28.0
47.3734 30.0
47.3938 28.0
47.4142 23.0
47.4347 39.0
47.4551 35.0
47.4755 24.0
47.496 29.0
47.5164 33.0
47.5368 33.0
47.5573 23.0
47.5777 29.0
47.5981 32.0
47.6186 29.0
47.639 35.0
47.6594 20.0
47.6799 33.0
47.7003 29.0
47.7207 37.0
47.7412 34.0
47.7616 41.0
47.782 24.0
47.8025 32.0
47.8229 31.0
47.8433 36.0
47.8638 28.0
47.8842 23.0
47.9046 29.0
47.925 21.0
47.9455 34.0
47.9659 32.0
47.9863 29.0
48.0068 27.0
48.0272 32.0
48.0476 26.0
48.0681 32.0
48.0885 37.0
48.1089 28.0
48.1294 36.0
48.1498 31.0
48.1702 34.0
48.1907 38.0
48.2111 23.0
48.2315 37.0
48.252 38.0
48.2724 34.0
48.2928 35.0
48.3133 36.0
48.3337 35.0
48.3541 28.0
48.3746 37.0
48.395 29.0
48.4154 35.0
48.4359 36.0
48.4563 40.0
48.4767 35.0
48.4972 33.0
48.5176 24.0
48.538 43.0
48.5585 39.0
48.5789 31.0
48.5993 35.0
48.6198 33.0
48.6402 36.0
48.6606 42.0
48.6811 37.0
48.7015 43.0
48.7219 34.0
48.7424 33.0
48.7628 39.0
48.7832 35.0
48.8036 47.0
48.8241 46.0
48.8445 36.0
48.8649 30.0
48.8854 40.0
48.9058 31.0
48.9262 37.0
48.9467 36.0
48.9671 39.0
48.9875 43.0
49.008 36.0
49.0284 29.0
49.0488 43.0
49.0693 41.0
49.0897 29.0
49.1101 28.0
49.1306 41.0
49.151 34.0
49.1714 44.0
49.1919 29.0
49.2123 33.0
49.2327 38.0
49.2532 33.0
49.2736 38.0
49.294 31.0
49.3145 36.0
49.3349 29.0
49.3553 29.0
49.3758 33.0
49.3962 27.0
49.4166 43.0
49.4371 39.0
49.4575 48.0
49.4779 36.0
49.4984 32.0
49.5188 28.0
49.5392 36.0
49.5597 25.0
49.5801 40.0
49.6005 25.0
49.621 29.0
49.6414 30.0
49.6618 34.0
49.6823 24.0
49.7027 32.0
49.7231 25.0
49.7435 41.0
49.764 46.0
49.7844 40.0
49.8048 33.0
49.8253 30.0
49.8457 42.0
49.8661 31.0
49.8866 40.0
49.907 30.0
49.9274 36.0
49.9479 34.0
49.9683 38.0
49.9887 31.0
50.0092 32.0
50.0296 33.0
50.05 30.0
50.0705 36.0
50.0909 29.0
50.1113 35.0
50.1318 33.0
50.1522 26.0
50.1726 32.0
50.1931 33.0
50.2135 39.0
50.2339 43.0
50.2544 36.0
50.2748 34.0
50.2952 50.0
50.3157 38.0
50.3361 30.0
50.3565 32.0
50.377 28.0
50.3974 33.0
50.4178 33.0
50.4383 38.0
50.4587 37.0
50.4791 33.0
50.4996 39.0
50.52 30.0
50.5404 45.0
50.5609 39.0
50.5813 29.0
50.6017 32.0
50.6221 39.0
50.6426 31.0
50.663 44.0
50.6834 38.0
50.7039 31.0
50.7243 42.0
50.7447 27.0
50.7652 35.0
50.7856 33.0
50.806 36.0
50.8265 23.0
50.8469 39.0
50.8673 28.0
50.8878 28.0
50.9082 39.0
50.9286 42.0
50.9491 36.0
50.9695 17.0
50.9899 36.0
51.0104 33.0
51.0308 29.0
51.0512 33.0
51.0717 34.0
51.0921 35.0
51.1125 39.0
51.133 45.0
51.1534 28.0
51.1738 28.0
51.1943 38.0
51.2147 37.0
51.2351 39.0
51.2556 35.0
51.276 30.0
51.2964 42.0
51.3169 26.0
51.3373 42.0
51.3577 29.0
51.3782 27.0
51.3986 32.0
51.419 31.0
51.4395 29.0
51.4599 28.0
51.4803 28.0
51.5008 35.0
51.5212 27.0
51.5416 37.0
51.562 27.0
51.5825 29.0
51.6029 34.0
51.6233 42.0
51.6438 26.0
51.6642 29.0
51.6846 28.0
51.7051 37.0
51.7255 30.0
51.7459 43.0
51.7664 31.0
51.7868 34.0
51.8072 27.0
51.8277 39.0
51.8481 33.0
51.8685 32.0
51.889 27.0
51.9094 45.0
51.9298 34.0
51.9503 26.0
51.9707 34.0
51.9911 27.0
52.0116 34.0
52.032 24.0
52.0524 26.0
52.0729 30.0
52.0933 26.0
52.1137 21.0
52.1342 31.0
52.1546 27.0
52.175 29.0
52.1955 22.0
52.2159 17.0
52.2363 44.0
52.2568 39.0
52.2772 28.0
52.2976 39.0
52.3181 25.0
52.3385 33.0
52.3589 25.0
52.3794 27.0
52.3998 37.0
52.4202 26.0
52.4407 37.0
52.4611 30.0
52.4815 37.0
52.5019 29.0
52.5224 34.0
52.5428 30.0
52.5632 17.0
52.5837 35.0
52.6041 29.0
52.6245 27.0
52.645 32.0
52.6654 23.0
52.6858 30.0
52.7063 24.0
52.7267 30.0
52.7471 25.0
52.7676 23.0
52.788 24.0
52.8084 28.0
52.8289 36.0
52.8493 33.0
52.8697 42.0
52.8902 32.0
52.9106 26.0
52.931 36.0
52.9515 25.0
52.9719 29.0
52.9923 24.0
53.0128 34.0
53.0332 27.0
53.0536 27.0
53.0741 27.0
53.0945 28.0
53.1149 36.0
53.1354 35.0
53.1558 30.0
53.1762 33.0
53.1967 24.0
53.2171 28.0
53.2375 29.0
53.258 30.0
53.2784 25.0
53.2988 32.0
53.3193 35.0
53.3397 41.0
53.3601 24.0
53.3805 39.0
53.401 33.0
53.4214 40.0
53.4418 22.0
53.4623 34.0
53.4827 30.0
53.5031 29.0
53.5236 31.0
53.544 26.0
53.5644 27.0
53.5849 42.0
53.6053 25.0
53.6257 29.0
53.6462 22.0
53.6666 27.0
53.687 24.0
53.7075 35.0
53.7279 39.0
53.7483 33.0
53.7688 27.0
53.7892 32.0
53.8096 41.0
53.8301 26.0
53.8505 32.0
53.8709 30.0
53.8914 31.0
53.9118 26.0
53.9322 22.0
53.9527 21.0
53.9731 30.0
53.9935 32.0
54.014 38.0
54.0344 29.0
54.0548 26.0
54.0753 31.0
54.0957 29.0
54.1161 38.0
54.1366 27.0
54.157 28.0
54.1774 32.0
54.1979 35.0
54.2183 23.0
54.2387 27.0
54.2592 33.0
54.2796 30.0
54.3 31.0
54.3204 32.0
54.3409 22.0
54.3613 32.0
54.3817 34.0
54.4022 22.0
54.4226 23.0
54.443 28.0
54.4635 22.0
54.4839 32.0
54.5043 30.0
54.5248 22.0
54.5452 26.0
54.5656 37.0
54.5861 27.0
54.6065 27.0
54.6269 27.0
54.6474 47.0
54.6678 40.0
54.6882 29.0
54.7087 35.0
54.7291 32.0
54.7495 35.0
54.77 31.0
54.7904 26.0
54.8108 37.0
54.8313 27.0
54.8517 31.0
54.8721 26.0
54.8926 29.0
54.913 28.0
54.9334 37.0
54.9539 38.0
54.9743 25.0
54.9947 30.0
55.0152 30.0
55.0356 35.0
55.056 43.0
55.0765 32.0
55.0969 34.0
55.1173 34.0
55.1378 27.0
55.1582 30.0
55.1786 32.0
55.199 23.0
55.2195 33.0
55.2399 32.0
55.2603 39.0
55.2808 39.0
55.3012 33.0
55.3216 26.0
55.3421 39.0
55.3625 30.0
55.3829 23.0
55.4034 35.0
55.4238 29.0
55.4442 52.0
55.4647 29.0
55.4851 28.0
55.5055 29.0
55.526 32.0
55.5464 31.0
55.5668 32.0
55.5873 47.0
55.6077 39.0
55.6281 41.0
55.6486 35.0
55.669 47.0
55.6894 44.0
55.7099 57.0
55.7303 61.0
55.7507 50.0
55.7712 41.0
55.7916 51.0
55.812 41.0
55.8325 30.0
55.8529 50.0
55.8733 51.0
55.8938 45.0
55.9142 39.0
55.9346 43.0
55.9551 58.0
55.9755 34.0
55.9959 39.0
56.0164 43.0
56.0368 31.0
56.0572 46.0
56.0777 35.0
56.0981 42.0
56.1185 44.0
56.1389 29.0
56.1594 33.0
56.1798 30.0
56.2002 28.0
56.2207 29.0
56.2411 33.0
56.2615 27.0
56.282 32.0
56.3024 32.0
56.3228 21.0
56.3433 28.0
56.3637 39.0
56.3841 37.0
56.4046 43.0
56.425 42.0
56.4454 37.0
56.4659 31.0
56.4863 33.0
56.5067 29.0
56.5272 29.0
56.5476 24.0
56.568 29.0
56.5885 41.0
56.6089 35.0
56.6293 36.0
56.6498 39.0
56.6702 36.0
56.6906 44.0
56.7111 29.0
56.7315 35.0
56.7519 53.0
56.7724 39.0
56.7928 47.0
56.8132 48.0
56.8337 45.0
56.8541 52.0
56.8745 34.0
56.895 36.0
56.9154 49.0
56.9358 28.0
56.9563 28.0
56.9767 40.0
56.9971 34.0
57.0176 40.0
57.038 38.0
57.0584 31.0
57.0788 34.0
57.0993 45.0
57.1197 34.0
57.1401 33.0
57.1606 34.0
57.181 33.0
57.2014 35.0
57.2219 44.0
57.2423 39.0
57.2627 35.0
57.2832 31.0
57.3036 38.0
57.324 38.0
57.3445 35.0
57.3649 35.0
57.3853 31.0
57.4058 39.0
57.4262 31.0
57.4466 31.0
57.4671 31.0
57.4875 46.0
57.5079 34.0
57.5284 31.0
57.5488 32.0
57.5692 32.0
57.5897 37.0
57.6101 35.0
57.6305 44.0
57.651 30.0
57.6714 37.0
57.6918 34.0
57.7123 35.0
57.7327 41.0
57.7531 42.0
57.7736 44.0
57.794 38.0
57.8144 51.0
57.8349 61.0
57.8553 39.0
57.8757 45.0
57.8962 34.0
57.9166 28.0
57.937 36.0
57.9574 36.0
57.9779 31.0
57.9983 38.0
58.0187 39.0
58.0392 36.0
58.0596 28.0
58.08 38.0
58.1005 40.0
58.1209 43.0
58.1413 35.0
58.1618 44.0
58.1822 34.0
58.2026 48.0
58.2231 36.0
58.2435 38.0
58.2639 31.0
58.2844 37.0
58.3048 28.0
58.3252 35.0
58.3457 37.0
58.3661 31.0
58.3865 35.0
58.407 31.0
58.4274 29.0
58.4478 38.0
58.4683 50.0
58.4887 46.0
58.5091 37.0
58.5296 40.0
58.55 38.0
58.5704 54.0
58.5909 31.0
58.6113 50.0
58.6317 41.0
58.6522 33.0
58.6726 39.0
58.693 45.0
58.7135 34.0
58.7339 45.0
58.7543 46.0
58.7748 35.0
58.7952 32.0
58.8156 36.0
58.8361 39.0
58.8565 23.0
58.8769 40.0
58.8973 36.0
58.9178 34.0
58.9382 34.0
58.9586 32.0
58.9791 46.0
58.9995 33.0
59.0199 46.0
59.0404 35.0
59.0608 40.0
59.0812 48.0
59.1017 41.0
59.1221 30.0
59.1425 53.0
59.163 35.0
59.1834 45.0
59.2038 32.0
59.2243 50.0
59.2447 60.0
59.2651 40.0
59.2856 76.0
59.306 66.0
59.3264 60.0
59.3469 83.0
59.3673 101.0
59.3877 126.0
59.4082 112.0
59.4286 106.0
59.449 120.0
59.4695 84.0
59.4899 113.0
59.5103 103.0
59.5308 93.0
59.5512 109.0
59.5716 76.0
59.5921 107.0
59.6125 85.0
59.6329 69.0
59.6534 70.0
59.6738 64.0
59.6942 64.0
59.7147 60.0
59.7351 57.0
59.7555 47.0
59.7759 43.0
59.7964 45.0
59.8168 37.0
59.8372 39.0
59.8577 38.0
59.8781 40.0
59.8985 35.0
59.919 36.0
59.9394 30.0
59.9598 34.0
59.9803 46.0
60.0007 40.0
60.0211 34.0
60.0416 40.0
60.062 30.0
60.0824 34.0
60.1029 38.0
60.1233 20.0
60.1437 29.0
60.1642 23.0
60.1846 33.0
60.205 29.0
60.2255 30.0
60.2459 32.0
60.2663 29.0
60.2868 30.0
60.3072 39.0
60.3276 36.0
60.3481 31.0
60.3685 25.0
60.3889 27.0
60.4094 34.0
60.4298 28.0
60.4502 31.0
60.4707 31.0
60.4911 44.0
60.5115 29.0
60.532 45.0
60.5524 23.0
60.5728 25.0
60.5933 36.0
60.6137 34.0
60.6341 32.0
60.6546 28.0
60.675 30.0
60.6954 28.0
60.7158 29.0
60.7363 29.0
60.7567 28.0
60.7771 35.0
60.7976 29.0
60.818 28.0
60.8384 28.0
60.8589 29.0
60.8793 35.0
60.8997 30.0
60.9202 35.0
60.9406 18.0
60.961 32.0
60.9815 34.0
61.0019 33.0
61.0223 36.0
61.0428 32.0
61.0632 35.0
61.0836 36.0
61.1041 32.0
61.1245 39.0
61.1449 34.0
61.1654 37.0
61.1858 34.0
61.2062 34.0
61.2267 31.0
61.2471 41.0
61.2675 28.0
61.288 39.0
61.3084 34.0
61.3288 28.0
61.3493 30.0
61.3697 32.0
61.3901 35.0
61.4106 38.0
61.431 27.0
61.4514 33.0
61.4719 29.0
61.4923 30.0
61.5127 36.0
61.5332 23.0
61.5536 36.0
61.574 24.0
61.5945 34.0
61.6149 40.0
61.6353 31.0
61.6557 35.0
61.6762 32.0
61.6966 23.0
61.717 32.0
61.7375 22.0
61.7579 28.0
61.7783 25.0
61.7988 23.0
61.8192 43.0
61.8396 45.0
61.8601 38.0
61.8805 28.0
61.9009 40.0
61.9214 35.0
61.9418 34.0
61.9622 27.0
61.9827 29.0
62.0031 26.0
62.0235 20.0
62.044 24.0
62.0644 31.0
62.0848 26.0
62.1053 22.0
62.1257 37.0
62.1461 24.0
62.1666 36.0
62.187 27.0
62.2074 36.0
62.2279 32.0
62.2483 40.0
62.2687 32.0
62.2892 43.0
62.3096 33.0
62.33 32.0
62.3505 32.0
62.3709 28.0
62.3913 30.0
62.4118 32.0
62.4322 36.0
62.4526 42.0
62.4731 28.0
62.4935 46.0
62.5139 27.0
62.5343 36.0
62.5548 22.0
62.5752 37.0
62.5956 37.0
62.6161 35.0
62.6365 31.0
62.6569 29.0
62.6774 29.0
62.6978 31.0
62.7182 42.0
62.7387 33.0
62.7591 37.0
62.7795 31.0
62.8 35.0
62.8204 23.0
62.8408 32.0
62.8613 36.0
62.8817 33.0
62.9021 25.0
62.9226 19.0
62.943 30.0
62.9634 28.0
62.9839 33.0
63.0043 32.0
63.0247 30.0
63.0452 23.0
63.0656 26.0
63.086 30.0
63.1065 38.0
63.1269 36.0
63.1473 40.0
63.1678 25.0
63.1882 25.0
63.2086 31.0
63.2291 27.0
63.2495 28.0
63.2699 36.0
63.2904 35.0
63.3108 30.0
63.3312 21.0
63.3517 44.0
63.3721 15.0
63.3925 38.0
63.413 17.0
63.4334 45.0
63.4538 22.0
63.4742 35.0
63.4947 36.0
63.5151 35.0
63.5355 45.0
63.556 35.0
63.5764 35.0
63.5968 38.0
63.6173 32.0
63.6377 27.0
63.6581 28.0
63.6786 34.0
63.699 35.0
63.7194 48.0
63.7399 33.0
63.7603 33.0
63.7807 37.0
63.8012 26.0
63.8216 32.0
63.842 30.0
63.8625 38.0
63.8829 31.0
63.9033 38.0
63.9238 27.0
63.9442 36.0
63.9646 27.0
63.9851 36.0
64.0055 40.0
64.0259 35.0
64.0464 29.0
64.0668 50.0
64.0872 37.0
64.1077 28.0
64.1281 32.0
64.1485 31.0
64.169 40.0
64.1894 30.0
64.2098 35.0
64.2303 18.0
64.2507 24.0
64.2711 34.0
64.2916 29.0
64.312 38.0
64.3324 32.0
64.3528 32.0
64.3733 37.0
64.3937 35.0
64.4141 35.0
64.4346 34.0
64.455 24.0
64.4754 25.0
64.4959 35.0
64.5163 39.0
64.5367 50.0
64.5572 37.0
64.5776 26.0
64.598 44.0
64.6185 35.0
64.6389 35.0
64.6593 24.0
64.6798 49.0
64.7002 38.0
64.7206 42.0
64.7411 42.0
64.7615 27.0
64.7819 40.0
64.8024 42.0
64.8228 38.0
64.8432 44.0
64.8637 39.0
64.8841 44.0
64.9045 37.0
64.925 35.0
64.9454 52.0
64.9658 46.0
64.9863 38.0
65.0067 38.0
65.0271 39.0
65.0476 58.0
65.068 55.0
65.0884 49.0
65.1089 53.0
65.1293 58.0
65.1497 50.0
65.1702 63.0
65.1906 70.0
65.211 82.0
65.2315 100.0
65.2519 109.0
65.2723 136.0
65.2927 140.0
65.3132 130.0
65.3336 124.0
65.354 110.0
65.3745 92.0
65.3949 109.0
65.4153 92.0
65.4358 100.0
65.4562 107.0
65.4766 99.0
65.4971 96.0
65.5175 82.0
65.5379 87.0
65.5584 68.0
65.5788 51.0
65.5992 58.0
65.6197 48.0
65.6401 49.0
65.6605 55.0
65.681 54.0
65.7014 33.0
65.7218 34.0
65.7423 47.0
65.7627 41.0
65.7831 34.0
65.8036 40.0
65.824 48.0
65.8444 48.0
65.8649 27.0
65.8853 33.0
65.9057 33.0
65.9262 36.0
65.9466 34.0
65.967 27.0
65.9875 28.0
66.0079 33.0
66.0283 39.0
66.0488 33.0
66.0692 33.0
66.0896 41.0
66.1101 43.0
66.1305 32.0
66.1509 40.0
66.1714 31.0
66.1918 34.0
66.2122 31.0
66.2326 36.0
66.2531 35.0
66.2735 33.0
66.2939 40.0
66.3144 47.0
66.3348 31.0
66.3552 34.0
66.3757 26.0
66.3961 31.0
66.4165 39.0
66.437 25.0
66.4574 39.0
66.4778 31.0
66.4983 39.0
66.5187 34.0
66.5391 34.0
66.5596 28.0
66.58 30.0
66.6004 27.0
66.6209 43.0
66.6413 38.0
66.6617 31.0
66.6822 25.0
66.7026 38.0
66.723 28.0
66.7435 34.0
66.7639 37.0
66.7843 39.0
66.8048 37.0
66.8252 38.0
66.8456 28.0
66.8661 30.0
66.8865 26.0
66.9069 35.0
66.9274 29.0
66.9478 37.0
66.9682 24.0
66.9887 37.0
67.0091 32.0
67.0295 35.0
67.05 35.0
67.0704 33.0
67.0908 32.0
67.1112 32.0
67.1317 40.0
67.1521 27.0
67.1725 37.0
67.193 35.0
67.2134 30.0
67.2338 37.0
67.2543 33.0
67.2747 38.0
67.2951 50.0
67.3156 23.0
67.336 27.0
67.3564 37.0
67.3769 27.0
67.3973 29.0
67.4177 35.0
67.4382 31.0
67.4586 32.0
67.479 37.0
67.4995 31.0
67.5199 39.0
67.5403 30.0
67.5608 17.0
67.5812 31.0
67.6016 43.0
67.6221 27.0
67.6425 31.0
67.6629 32.0
67.6834 24.0
67.7038 32.0
67.7242 39.0
67.7447 27.0
67.7651 25.0
67.7855 40.0
67.806 34.0
67.8264 32.0
67.8468 22.0
67.8673 27.0
67.8877 29.0
67.9081 28.0
67.9286 33.0
67.949 25.0
67.9694 22.0
67.9899 30.0
68.0103 26.0
68.0307 29.0
68.0511 40.0
68.0716 24.0
68.092 24.0
68.1124 24.0
68.1329 20.0
68.1533 25.0
68.1737 42.0
68.1942 26.0
68.2146 33.0
68.235 28.0
68.2555 43.0
68.2759 26.0
68.2963 19.0
68.3168 27.0
68.3372 27.0
68.3576 27.0
68.3781 27.0
68.3985 31.0
68.4189 34.0
68.4394 23.0
68.4598 33.0
68.4802 38.0
68.5007 29.0
68.5211 24.0
68.5415 24.0
68.562 34.0
68.5824 40.0
68.6028 23.0
68.6233 24.0
68.6437 31.0
68.6641 31.0
68.6846 29.0
68.705 32.0
68.7254 32.0
68.7459 35.0
68.7663 29.0
68.7867 31.0
68.8072 24.0
68.8276 31.0
68.848 26.0
68.8685 36.0
68.8889 34.0
68.9093 36.0
68.9297 33.0
68.9502 23.0
68.9706 18.0
68.991 29.0
69.0115 31.0
69.0319 24.0
69.0523 47.0
69.0728 45.0
69.0932 29.0
69.1136 22.0
69.1341 23.0
69.1545 35.0
69.1749 30.0
69.1954 27.0
69.2158 29.0
69.2362 32.0
69.2567 32.0
69.2771 24.0
69.2975 35.0
69.318 28.0
69.3384 24.0
69.3588 37.0
69.3793 23.0
69.3997 29.0
69.4201 33.0
69.4406 29.0
69.461 32.0
69.4814 27.0
69.5019 24.0
69.5223 25.0
69.5427 37.0
69.5632 34.0
69.5836 32.0
69.604 35.0
69.6245 26.0
69.6449 33.0
69.6653 28.0
69.6858 29.0
69.7062 34.0
69.7266 32.0
69.7471 31.0
69.7675 30.0
69.7879 28.0
69.8084 32.0
69.8288 30.0
69.8492 25.0
69.8696 33.0
69.8901 27.0
69.9105 35.0
69.9309 32.0
69.9514 29.0
69.9718 24.0
69.9922 32.0
70.0127 23.0
70.0331 33.0
70.0535 27.0
70.074 38.0
70.0944 32.0
70.1148 33.0
70.1353 33.0
70.1557 26.0
70.1761 32.0
70.1966 27.0
70.217 27.0
70.2374 22.0
70.2579 33.0
70.2783 41.0
70.2987 37.0
70.3192 31.0
70.3396 21.0
70.36 27.0
70.3805 48.0
70.4009 50.0
70.4213 30.0
70.4418 27.0
70.4622 24.0
70.4826 29.0
70.5031 30.0
70.5235 29.0
70.5439 27.0
70.5644 30.0
70.5848 37.0
70.6052 33.0
70.6257 20.0
70.6461 29.0
70.6665 34.0
70.687 27.0
70.7074 28.0
70.7278 30.0
70.7483 31.0
70.7687 29.0
70.7891 22.0
70.8095 23.0
70.83 31.0
70.8504 32.0
70.8708 21.0
70.8913 37.0
70.9117 30.0
70.9321 25.0
70.9526 31.0
70.973 34.0
70.9934 35.0
71.0139 27.0
71.0343 27.0
71.0547 29.0
71.0752 30.0
71.0956 20.0
71.116 35.0
71.1365 32.0
71.1569 32.0
71.1773 35.0
71.1978 35.0
71.2182 33.0
71.2386 35.0
71.2591 22.0
71.2795 33.0
71.2999 24.0
71.3204 26.0
71.3408 26.0
71.3612 35.0
71.3817 37.0
71.4021 36.0
71.4225 30.0
71.443 42.0
71.4634 33.0
71.4838 28.0
71.5043 37.0
71.5247 31.0
71.5451 30.0
71.5656 32.0
71.586 37.0
71.6064 27.0
71.6269 38.0
71.6473 32.0
71.6677 23.0
71.6881 30.0
71.7086 38.0
71.729 32.0
71.7494 39.0
71.7699 35.0
71.7903 30.0
71.8107 28.0
71.8312 30.0
71.8516 31.0
71.872 43.0
71.8925 35.0
71.9129 31.0
71.9333 32.0
71.9538 34.0
71.9742 24.0
71.9946 26.0
72.0151 42.0
72.0355 26.0
72.0559 30.0
72.0764 35.0
72.0968 45.0
72.1172 31.0
72.1377 32.0
72.1581 43.0
72.1785 34.0
72.199 25.0
72.2194 26.0
72.2398 37.0
72.2603 37.0
72.2807 28.0
72.3011 29.0
72.3216 36.0
72.342 32.0
72.3624 37.0
72.3829 35.0
72.4033 28.0
72.4237 34.0
72.4442 33.0
72.4646 33.0
72.485 31.0
72.5055 34.0
72.5259 30.0
72.5463 24.0
72.5668 35.0
72.5872 30.0
72.6076 28.0
72.628 28.0
72.6485 24.0
72.6689 27.0
72.6893 26.0
72.7098 35.0
72.7302 36.0
72.7506 30.0
72.7711 35.0
72.7915 33.0
72.8119 41.0
72.8324 22.0
72.8528 35.0
72.8732 30.0
72.8937 26.0
72.9141 30.0
72.9345 33.0
72.955 40.0
72.9754 29.0
72.9958 36.0
73.0163 23.0
73.0367 36.0
73.0571 40.0
73.0776 34.0
73.098 35.0
73.1184 30.0
73.1389 37.0
73.1593 36.0
73.1797 29.0
73.2002 30.0
73.2206 34.0
73.241 30.0
73.2615 33.0
73.2819 33.0
73.3023 26.0
73.3228 46.0
73.3432 53.0
73.3636 28.0
73.3841 51.0
73.4045 37.0
73.4249 35.0
73.4454 25.0
73.4658 35.0
73.4862 40.0
73.5066 23.0
73.5271 31.0
73.5475 36.0
73.5679 36.0
73.5884 29.0
73.6088 37.0
73.6292 25.0
73.6497 33.0
73.6701 24.0
73.6905 30.0
73.711 38.0
73.7314 44.0
73.7518 43.0
73.7723 38.0
73.7927 40.0
73.8131 26.0
73.8336 36.0
73.854 36.0
73.8744 31.0
73.8949 35.0
73.9153 32.0
73.9357 27.0
73.9562 40.0
73.9766 41.0
73.997 24.0
74.0175 31.0
74.0379 34.0
74.0583 44.0
74.0788 44.0
74.0992 30.0
74.1196 32.0
74.1401 39.0
74.1605 42.0
74.1809 50.0
74.2014 36.0
74.2218 36.0
74.2422 30.0
74.2627 37.0
74.2831 30.0
74.3035 24.0
74.324 27.0
74.3444 34.0
74.3648 45.0
74.3853 31.0
74.4057 33.0
74.4261 29.0
74.4465 33.0
74.467 34.0
74.4874 35.0
74.5078 37.0
74.5283 38.0
74.5487 32.0
74.5691 37.0
74.5896 32.0
74.61 29.0
74.6304 26.0
74.6509 25.0
74.6713 33.0
74.6917 29.0
74.7122 26.0
74.7326 30.0
74.753 36.0
74.7735 43.0
74.7939 37.0
74.8143 38.0
74.8348 35.0
74.8552 28.0
74.8756 35.0
74.8961 28.0
74.9165 20.0
74.9369 26.0
74.9574 29.0
74.9778 21.0
74.9982 33.0
75.0187 34.0
75.0391 36.0
75.0595 35.0
75.08 33.0
75.1004 33.0
75.1208 29.0
75.1413 36.0
75.1617 38.0
75.1821 32.0
75.2026 22.0
75.223 30.0
75.2434 34.0
75.2639 26.0
75.2843 31.0
75.3047 27.0
75.3252 27.0
75.3456 24.0
75.366 27.0
75.3864 30.0
75.4069 42.0
75.4273 28.0
75.4477 27.0
75.4682 34.0
75.4886 27.0
75.509 25.0
75.5295 25.0
75.5499 29.0
75.5703 31.0
75.5908 29.0
75.6112 26.0
75.6316 26.0
75.6521 28.0
75.6725 39.0
75.6929 33.0
75.7134 29.0
75.7338 23.0
75.7542 31.0
75.7747 25.0
75.7951 28.0
75.8155 33.0
75.836 28.0
75.8564 37.0
75.8768 34.0
75.8973 28.0
75.9177 44.0
75.9381 39.0
75.9586 26.0
75.979 24.0
75.9994 31.0
76.0199 33.0
76.0403 36.0
76.0607 37.0
76.0812 27.0
76.1016 33.0
76.122 26.0
76.1425 44.0
76.1629 25.0
76.1833 21.0
76.2038 34.0
76.2242 24.0
76.2446 25.0
76.265 20.0
76.2855 23.0
76.3059 32.0
76.3263 22.0
76.3468 30.0
76.3672 28.0
76.3876 24.0
76.4081 32.0
76.4285 32.0
76.4489 16.0
76.4694 26.0
76.4898 30.0
76.5102 30.0
76.5307 31.0
76.5511 24.0
76.5715 26.0
76.592 32.0
76.6124 30.0
76.6328 24.0
76.6533 27.0
76.6737 29.0
76.6941 31.0
76.7146 23.0
76.735 31.0
76.7554 23.0
76.7759 33.0
76.7963 24.0
76.8167 32.0
76.8372 36.0
76.8576 24.0
76.878 31.0
76.8985 24.0
76.9189 24.0
76.9393 35.0
76.9598 27.0
76.9802 31.0
77.0006 30.0
77.0211 34.0
77.0415 34.0
77.0619 27.0
77.0824 27.0
77.1028 27.0
77.1232 28.0
77.1437 29.0
77.1641 37.0
77.1845 34.0
77.2049 38.0
77.2254 49.0
77.2458 38.0
77.2662 36.0
77.2867 32.0
77.3071 37.0
77.3275 34.0
77.348 41.0
77.3684 42.0
77.3888 46.0
77.4093 62.0
77.4297 57.0
77.4501 43.0
77.4706 49.0
77.491 41.0
77.5114 48.0
77.5319 48.0
77.5523 35.0
77.5727 38.0
77.5932 45.0
77.6136 53.0
77.634 47.0
77.6545 41.0
77.6749 37.0
77.6953 45.0
77.7158 32.0
77.7362 36.0
77.7566 32.0
77.7771 26.0
77.7975 25.0
77.8179 25.0
77.8384 35.0
77.8588 28.0
77.8792 27.0
77.8997 28.0
77.9201 31.0
77.9405 22.0
77.961 23.0
77.9814 38.0
78.0018 30.0
78.0223 26.0
78.0427 33.0
78.0631 26.0
78.0835 33.0
78.104 32.0
78.1244 31.0
78.1448 37.0
78.1653 27.0
78.1857 26.0
78.2061 27.0
78.2266 29.0
78.247 37.0
78.2674 33.0
78.2879 34.0
78.3083 36.0
78.3287 34.0
78.3492 25.0
78.3696 34.0
78.39 33.0
78.4105 37.0
78.4309 31.0
78.4513 37.0
78.4718 42.0
78.4922 44.0
78.5126 29.0
78.5331 38.0
78.5535 44.0
78.5739 40.0
78.5944 36.0
78.6148 44.0
78.6352 42.0
78.6557 27.0
78.6761 32.0
78.6965 51.0
78.717 34.0
78.7374 29.0
78.7578 33.0
78.7783 28.0
78.7987 33.0
78.8191 36.0
78.8396 33.0
78.86 38.0
78.8804 26.0
78.9009 30.0
78.9213 35.0
78.9417 25.0
78.9622 28.0
78.9826 29.0
79.003 30.0
79.0234 37.0
79.0439 31.0
79.0643 36.0
79.0847 38.0
79.1052 33.0
79.1256 44.0
79.146 27.0
79.1665 27.0
79.1869 30.0
79.2073 29.0
79.2278 25.0
79.2482 32.0
79.2686 33.0
79.2891 30.0
79.3095 34.0
79.3299 27.0
79.3504 29.0
79.3708 29.0
79.3912 30.0
79.4117 37.0
79.4321 32.0
79.4525 26.0
79.473 29.0
79.4934 23.0
79.5138 39.0
79.5343 28.0
79.5547 33.0
79.5751 28.0
79.5956 39.0
79.616 32.0
79.6364 35.0
79.6569 25.0
79.6773 28.0
79.6977 26.0
79.7182 31.0
79.7386 32.0
79.759 28.0
79.7795 31.0
79.7999 29.0
79.8203 28.0
79.8408 25.0
79.8612 34.0
79.8816 33.0
79.9021 33.0
79.9225 25.0
79.9429 40.0
79.9633 36.0
79.9838 30.0
80.0042 35.0
80.0246 30.0
80.0451 32.0
80.0655 32.0
80.0859 38.0
80.1064 17.0
