9.9 52.0
9.9204 53.0
9.9409 62.0
9.9613 60.0
9.9817 66.0
10.0022 61.0
10.0226 67.0
10.043 60.0
10.0635 53.0
10.0839 64.0
10.1043 55.0
10.1248 66.0
10.1452 48.0
10.1656 49.0
10.1861 57.0
10.2065 53.0
10.2269 60.0
10.2474 45.0
10.2678 62.0
10.2882 43.0
10.3087 54.0
10.3291 54.0
10.3495 60.0
10.3699 55.0
10.3904 63.0
10.4108 53.0
10.4312 58.0
10.4517 65.0
10.4721 50.0
10.4925 55.0
10.513 43.0
10.5334 48.0
10.5538 63.0
10.5743 66.0
10.5947 47.0
10.6151 47.0
10.6356 52.0
10.656 39.0
10.6764 51.0
10.6969 63.0
10.7173 49.0
10.7377 52.0
10.7582 56.0
10.7786 52.0
10.799 43.0
10.8195 47.0
10.8399 43.0
10.8603 41.0
10.8808 49.0
10.9012 41.0
10.9216 54.0
10.9421 45.0
10.9625 52.0
10.9829 39.0
11.0034 52.0
11.0238 55.0
11.0442 55.0
11.0647 44.0
11.0851 36.0
11.1055 51.0
11.126 42.0
11.1464 41.0
11.1668 47.0
11.1873 46.0
11.2077 49.0
11.2281 39.0
11.2486 37.0
11.269 37.0
11.2894 43.0
11.3098 35.0
11.3303 46.0
11.3507 46.0
11.3711 51.0
11.3916 44.0
11.412 36.0
11.4324 37.0
11.4529 42.0
11.4733 42.0
11.4937 34.0
11.5142 55.0
11.5346 40.0
11.555 44.0
11.5755 49.0
11.5959 40.0
11.6163 50.0
11.6368 47.0
11.6572 46.0
11.6776 52.0
11.6981 39.0
11.7185 41.0
11.7389 45.0
11.7594 38.0
11.7798 41.0
11.8002 34.0
11.8207 28.0
11.8411 40.0
11.8615 38.0
11.882 32.0
11.9024 39.0
11.9228 28.0
11.9433 37.0
11.9637 34.0
11.9841 39.0
12.0046 43.0
12.025 39.0
12.0454 28.0
12.0659 34.0
12.0863 49.0
12.1067 50.0
12.1272 34.0
12.1476 32.0
12.168 34.0
12.1884 35.0
12.2089 45.0
12.2293 35.0
12.2497 29.0
12.2702 33.0
12.2906 39.0
12.311 29.0
12.3315 38.0
12.3519 35.0
12.3723 28.0
12.3928 35.0
12.4132 29.0
12.4336 35.0
12.4541 41.0
12.4745 33.0
12.4949 28.0
12.5154 29.0
12.5358 27.0
12.5562 26.0
12.5767 40.0
12.5971 30.0
12.6175 27.0
12.638 41.0
12.6584 28.0
12.6788 34.0
12.6993 36.0
12.7197 31.0
12.7401 28.0
12.7606 31.0
12.781 36.0
12.8014 39.0
12.8219 41.0
12.8423 39.0
12.8627 30.0
12.8832 39.0
12.9036 28.0
12.924 40.0
12.9445 29.0
12.9649 27.0
12.9853 32.0
13.0058 32.0
13.0262 28.0
13.0466 28.0
13.0671 33.0
13.0875 24.0
13.1079 26.0
13.1283 39.0
13.1488 21.0
13.1692 40.0
13.1896 32.0
13.2101 35.0
13.2305 18.0
13.2509 20.0
13.2714 29.0
13.2918 32.0
13.3122 30.0
13.3327 32.0
13.3531 27.0
13.3735 39.0
13.394 24.0
13.4144 31.0
13.4348 27.0
13.4553 31.0
13.4757 29.0
13.4961 25.0
13.5166 24.0
13.537 32.0
13.5574 31.0
13.5779 27.0
13.5983 29.0
13.6187 30.0
13.6392 30.0
13.6596 24.0
13.68 24.0
13.7005 29.0
13.7209 27.0
13.7413 30.0
13.7618 34.0
13.7822 26.0
13.8026 33.0
13.8231 27.0
13.8435 30.0
13.8639 20.0
13.8844 26.0
13.9048 18.0
13.9252 21.0
13.9457 27.0
13.9661 33.0
13.9865 24.0
14.007 31.0
14.0274 23.0
14.0478 14.0
14.0682 22.0
14.0887 34.0
14.1091 36.0
14.1295 19.0
14.15 21.0
14.1704 32.0
14.1908 53.0
14.2113 65.0
14.2317 64.0
14.2521 64.0
14.2726 52.0
14.293 52.0
14.3134 61.0
14.3339 44.0
14.3543 42.0
14.3747 36.0
14.3952 35.0
14.4156 40.0
14.436 27.0
14.4565 33.0
14.4769 27.0
14.4973 28.0
14.5178 27.0
14.5382 21.0
14.5586 18.0
14.5791 19.0
14.5995 23.0
14.6199 27.0
14.6404 22.0
14.6608 28.0
14.6812 26.0
14.7017 36.0
14.7221 33.0
14.7425 41.0
14.763 63.0
14.7834 98.0
14.8038 163.0
14.8243 265.0
14.8447 320.0
14.8651 418.0
14.8856 402.0
14.906 389.0
14.9264 335.0
14.9468 241.0
14.9673 174.0
14.9877 95.0
15.0081 75.0
15.0286 63.0
15.049 58.0
15.0694 61.0
15.0899 42.0
15.1103 59.0
15.1307 46.0
15.1512 38.0
15.1716 34.0
15.192 25.0
15.2125 26.0
15.2329 27.0
15.2533 25.0
15.2738 24.0
15.2942 21.0
15.3146 19.0
15.3351 14.0
15.3555 28.0
15.3759 36.0
15.3964 24.0
15.4168 21.0
15.4372 26.0
15.4577 27.0
15.4781 26.0
15.4985 17.0
15.519 25.0
15.5394 16.0
15.5598 19.0
15.5803 17.0
15.6007 19.0
15.6211 26.0
15.6416 18.0
15.662 17.0
15.6824 17.0
15.7029 16.0
15.7233 22.0
15.7437 16.0
15.7642 28.0
15.7846 18.0
15.805 13.0
15.8255 15.0
15.8459 18.0
15.8663 23.0
15.8867 12.0
15.9072 22.0
15.9276 17.0
15.948 14.0
15.9685 20.0
15.9889 20.0
16.0093 19.0
16.0298 14.0
16.0502 23.0
16.0706 19.0
16.0911 23.0
16.1115 17.0
16.1319 22.0
16.1524 26.0
16.1728 15.0
16.1932 17.0
16.2137 24.0
16.2341 14.0
16.2545 22.0
16.275 22.0
16.2954 18.0
16.3158 26.0
16.3363 20.0
16.3567 14.0
16.3771 20.0
16.3976 13.0
16.418 22.0
16.4384 12.0
16.4589 21.0
16.4793 22.0
16.4997 15.0
16.5202 14.0
16.5406 14.0
16.561 21.0
16.5815 24.0
16.6019 24.0
16.6223 17.0
16.6428 17.0
16.6632 24.0
16.6836 19.0
16.7041 21.0
16.7245 15.0
16.7449 22.0
16.7653 21.0
16.7858 13.0
16.8062 20.0
16.8266 15.0
16.8471 16.0
16.8675 14.0
16.8879 19.0
16.9084 13.0
16.9288 13.0
16.9492 13.0
16.9697 17.0
16.9901 19.0
17.0105 29.0
17.031 8.0
17.0514 13.0
17.0718 11.0
17.0923 13.0
17.1127 20.0
17.1331 16.0
17.1536 20.0
17.174 17.0
17.1944 11.0
17.2149 18.0
17.2353 19.0
17.2557 18.0
17.2762 15.0
17.2966 19.0
17.317 16.0
17.3375 14.0
17.3579 17.0
17.3783 15.0
17.3988 13.0
17.4192 12.0
17.4396 18.0
17.4601 12.0
17.4805 19.0
17.5009 22.0
17.5214 20.0
17.5418 21.0
17.5622 15.0
17.5827 17.0
17.6031 13.0
17.6235 16.0
17.644 17.0
17.6644 20.0
17.6848 17.0
17.7052 14.0
17.7257 20.0
17.7461 15.0
17.7665 17.0
17.787 14.0
17.8074 20.0
17.8278 21.0
17.8483 17.0
17.8687 21.0
17.8891 9.0
17.9096 20.0
17.93 31.0
17.9504 21.0
17.9709 35.0
17.9913 34.0
18.0117 34.0
18.0322 45.0
18.0526 34.0
18.073 37.0
18.0935 24.0
18.1139 22.0
18.1343 29.0
18.1548 20.0
18.1752 31.0
18.1956 21.0
18.2161 19.0
18.2365 14.0
18.2569 16.0
18.2774 18.0
18.2978 9.0
18.3182 15.0
18.3387 17.0
18.3591 17.0
18.3795 17.0
18.4 11.0
18.4204 12.0
18.4408 16.0
18.4613 20.0
18.4817 25.0
18.5021 15.0
18.5226 16.0
18.543 20.0
18.5634 19.0
18.5839 14.0
18.6043 14.0
18.6247 22.0
18.6451 21.0
18.6656 10.0
18.686 19.0
18.7064 15.0
18.7269 21.0
18.7473 26.0
18.7677 9.0
18.7882 22.0
18.8086 25.0
18.829 16.0
18.8495 21.0
18.8699 14.0
18.8903 15.0
18.9108 13.0
18.9312 13.0
18.9516 12.0
18.9721 15.0
18.9925 22.0
19.0129 19.0
19.0334 18.0
19.0538 17.0
19.0742 18.0
19.0947 19.0
19.1151 21.0
19.1355 23.0
19.156 20.0
19.1764 20.0
19.1968 24.0
19.2173 15.0
19.2377 14.0
19.2581 14.0
19.2786 14.0
19.299 17.0
19.3194 17.0
19.3399 22.0
19.3603 12.0
19.3807 15.0
19.4012 19.0
19.4216 8.0
19.442 19.0
19.4625 24.0
19.4829 26.0
19.5033 17.0
19.5237 24.0
19.5442 25.0
19.5646 21.0
19.585 25.0
19.6055 17.0
19.6259 15.0
19.6463 30.0
19.6668 32.0
19.6872 26.0
19.7076 34.0
19.7281 29.0
19.7485 28.0
19.7689 22.0
19.7894 12.0
19.8098 23.0
19.8302 22.0
19.8507 16.0
19.8711 21.0
19.8915 18.0
19.912 18.0
19.9324 23.0
19.9528 18.0
19.9733 17.0
19.9937 16.0
20.0141 21.0
20.0346 26.0
20.055 35.0
20.0754 22.0
20.0959 28.0
20.1163 31.0
20.1367 16.0
20.1572 25.0
20.1776 23.0
20.198 30.0
20.2185 35.0
20.2389 48.0
20.2593 72.0
20.2798 118.0
20.3002 194.0
20.3206 234.0
20.3411 359.0
20.3615 303.0
20.3819 257.0
20.4024 246.0
20.4228 192.0
20.4432 119.0
20.4636 73.0
20.4841 68.0
20.5045 48.0
20.5249 37.0
20.5454 54.0
20.5658 48.0
20.5862 38.0
20.6067 45.0
20.6271 48.0
20.6475 59.0
20.668 50.0
20.6884 77.0
20.7088 92.0
20.7293 95.0
20.7497 142.0
20.7701 117.0
20.7906 100.0
20.811 94.0
20.8314 64.0
20.8519 51.0
20.8723 44.0
20.8927 31.0
20.9132 30.0
20.9336 49.0
20.954 29.0
20.9745 35.0
20.9949 56.0
21.0153 91.0
21.0358 99.0
21.0562 126.0
21.0766 111.0
21.0971 119.0
21.1175 83.0
21.1379 78.0
21.1584 60.0
21.1788 50.0
21.1992 57.0
21.2197 42.0
21.2401 56.0
21.2605 53.0
21.281 70.0
21.3014 69.0
21.3218 81.0
21.3422 115.0
21.3627 124.0
21.3831 240.0
21.4035 326.0
21.424 488.0
21.4444 665.0
21.4648 785.0
21.4853 720.0
21.5057 745.0
21.5261 691.0
21.5466 526.0
21.567 394.0
21.5874 276.0
21.6079 195.0
21.6283 130.0
21.6487 95.0
21.6692 74.0
21.6896 72.0
21.71 54.0
21.7305 50.0
21.7509 52.0
21.7713 31.0
21.7918 27.0
21.8122 36.0
21.8326 39.0
21.8531 18.0
21.8735 28.0
21.8939 22.0
21.9144 18.0
21.9348 23.0
21.9552 19.0
21.9757 22.0
21.9961 15.0
22.0165 27.0
22.037 16.0
22.0574 17.0
22.0778 12.0
22.0983 17.0
22.1187 18.0
22.1391 15.0
22.1596 22.0
22.18 13.0
22.2004 15.0
22.2209 23.0
22.2413 17.0
22.2617 19.0
22.2821 16.0
22.3026 42.0
22.323 37.0
22.3434 29.0
22.3639 39.0
22.3843 30.0
22.4047 38.0
22.4252 37.0
22.4456 26.0
22.466 25.0
22.4865 32.0
22.5069 28.0
22.5273 11.0
22.5478 28.0
22.5682 14.0
22.5886 19.0
22.6091 20.0
22.6295 22.0
22.6499 18.0
22.6704 22.0
22.6908 28.0
22.7112 26.0
22.7317 31.0
22.7521 24.0
22.7725 28.0
22.793 16.0
22.8134 19.0
22.8338 15.0
22.8543 12.0
22.8747 18.0
22.8951 17.0
22.9156 17.0
22.936 13.0
22.9564 17.0
22.9769 20.0
22.9973 14.0
23.0177 17.0
23.0382 15.0
23.0586 12.0
23.079 15.0
23.0995 9.0
23.1199 10.0
23.1403 25.0
23.1608 18.0
23.1812 16.0
23.2016 17.0
23.222 21.0
23.2425 23.0
23.2629 20.0
23.2833 35.0
23.3038 59.0
23.3242 33.0
23.3446 30.0
23.3651 33.0
23.3855 19.0
23.4059 21.0
23.4264 24.0
23.4468 24.0
23.4672 15.0
23.4877 23.0
23.5081 33.0
23.5285 15.0
23.549 27.0
23.5694 26.0
23.5898 16.0
23.6103 21.0
23.6307 17.0
23.6511 20.0
23.6716 30.0
23.692 29.0
23.7124 34.0
23.7329 40.0
23.7533 42.0
23.7737 33.0
23.7942 23.0
23.8146 34.0
23.835 37.0
23.8555 31.0
23.8759 28.0
23.8963 32.0
23.9168 21.0
23.9372 22.0
23.9576 20.0
23.9781 21.0
23.9985 17.0
24.0189 11.0
24.0394 9.0
24.0598 24.0
24.0802 11.0
24.1006 22.0
24.1211 13.0
24.1415 14.0
24.1619 15.0
24.1824 20.0
24.2028 16.0
24.2232 19.0
24.2437 17.0
24.2641 12.0
24.2845 21.0
24.305 22.0
24.3254 22.0
24.3458 17.0
24.3663 28.0
24.3867 22.0
24.4071 28.0
24.4276 33.0
24.448 34.0
24.4684 16.0
24.4889 24.0
24.5093 24.0
24.5297 19.0
24.5502 24.0
24.5706 18.0
24.591 16.0
24.6115 28.0
24.6319 30.0
24.6523 19.0
24.6728 24.0
24.6932 26.0
24.7136 28.0
24.7341 28.0
24.7545 22.0
24.7749 16.0
24.7954 11.0
24.8158 11.0
24.8362 18.0
24.8567 15.0
24.8771 14.0
24.8975 12.0
24.918 11.0
24.9384 18.0
24.9588 17.0
24.9793 18.0
24.9997 20.0
25.0201 15.0
25.0405 23.0
25.061 19.0
25.0814 21.0
25.1018 23.0
25.1223 20.0
25.1427 10.0
25.1631 22.0
25.1836 12.0
25.204 21.0
25.2244 16.0
25.2449 22.0
25.2653 20.0
25.2857 19.0
25.3062 15.0
25.3266 19.0
25.347 22.0
25.3675 12.0
25.3879 18.0
25.4083 16.0
25.4288 21.0
25.4492 20.0
25.4696 19.0
25.4901 18.0
25.5105 20.0
25.5309 17.0
25.5514 16.0
25.5718 16.0
25.5922 28.0
25.6127 29.0
25.6331 41.0
25.6535 33.0
25.674 39.0
25.6944 35.0
25.7148 36.0
25.7353 31.0
25.7557 35.0
25.7761 29.0
25.7966 29.0
25.817 37.0
25.8374 30.0
25.8579 42.0
25.8783 34.0
25.8987 34.0
25.9191 32.0
25.9396 30.0
25.96 37.0
25.9804 34.0
26.0009 36.0
26.0213 37.0
26.0417 39.0
26.0622 42.0
26.0826 58.0
26.103 83.0
26.1235 81.0
26.1439 86.0
26.1643 99.0
26.1848 99.0
26.2052 81.0
26.2256 97.0
26.2461 85.0
26.2665 59.0
26.2869 54.0
26.3074 44.0
26.3278 43.0
26.3482 40.0
26.3687 36.0
26.3891 41.0
26.4095 26.0
26.43 20.0
26.4504 31.0
26.4708 30.0
26.4913 26.0
26.5117 26.0
26.5321 24.0
26.5526 22.0
26.573 30.0
26.5934 36.0
26.6139 31.0
26.6343 46.0
26.6547 50.0
26.6752 59.0
26.6956 68.0
26.716 86.0
26.7365 220.0
26.7569 455.0
26.7773 713.0
26.7978 563.0
26.8182 508.0
26.8386 618.0
26.859 670.0
26.8795 535.0
26.8999 476.0
26.9203 389.0
26.9408 286.0
26.9612 256.0
26.9816 183.0
27.0021 126.0
27.0225 103.0
27.0429 73.0
27.0634 77.0
27.0838 76.0
27.1042 61.0
27.1247 50.0
27.1451 45.0
27.1655 46.0
27.186 40.0
27.2064 34.0
27.2268 34.0
27.2473 26.0
27.2677 31.0
27.2881 25.0
27.3086 33.0
27.329 24.0
27.3494 32.0
27.3699 24.0
27.3903 21.0
27.4107 25.0
27.4312 23.0
27.4516 19.0
27.472 29.0
27.4925 20.0
27.5129 26.0
27.5333 23.0
27.5538 27.0
27.5742 36.0
27.5946 19.0
27.6151 23.0
27.6355 29.0
27.6559 27.0
27.6764 14.0
27.6968 55.0
27.7172 49.0
27.7377 45.0
27.7581 58.0
27.7785 61.0
27.7989 99.0
27.8194 92.0
27.8398 83.0
27.8602 59.0
27.8807 91.0
27.9011 84.0
27.9215 56.0
27.942 44.0
27.9624 41.0
27.9828 45.0
28.0033 49.0
28.0237 44.0
28.0441 60.0
28.0646 61.0
28.085 63.0
28.1054 60.0
28.1259 69.0
28.1463 113.0
28.1667 184.0
28.1872 385.0
28.2076 344.0
28.228 404.0
28.2485 473.0
28.2689 567.0
28.2893 501.0
28.3098 504.0
28.3302 414.0
28.3506 316.0
28.3711 345.0
28.3915 242.0
28.4119 136.0
28.4324 111.0
28.4528 91.0
28.4732 67.0
28.4937 54.0
28.5141 64.0
28.5345 35.0
28.555 47.0
28.5754 42.0
28.5958 34.0
28.6163 28.0
28.6367 42.0
28.6571 31.0
28.6775 40.0
28.698 25.0
28.7184 28.0
28.7388 20.0
28.7593 30.0
28.7797 21.0
28.8001 22.0
28.8206 23.0
28.841 11.0
28.8614 20.0
28.8819 21.0
28.9023 18.0
28.9227 19.0
28.9432 28.0
28.9636 18.0
28.984 20.0
29.0045 19.0
29.0249 16.0
29.0453 25.0
29.0658 18.0
29.0862 27.0
29.1066 21.0
29.1271 22.0
29.1475 19.0
29.1679 27.0
29.1884 25.0
29.2088 19.0
29.2292 15.0
29.2497 20.0
29.2701 26.0
29.2905 28.0
29.311 22.0
29.3314 33.0
29.3518 31.0
29.3723 29.0
29.3927 29.0
29.4131 35.0
29.4336 37.0
29.454 51.0
29.4744 72.0
29.4949 129.0
29.5153 160.0
29.5357 182.0
29.5562 212.0
29.5766 222.0
29.597 236.0
29.6174 222.0
29.6379 207.0
29.6583 149.0
29.6787 159.0
29.6992 113.0
29.7196 93.0
29.74 68.0
29.7605 80.0
29.7809 53.0
29.8013 42.0
29.8218 30.0
29.8422 40.0
29.8626 28.0
29.8831 34.0
29.9035 36.0
29.9239 38.0
29.9444 32.0
29.9648 28.0
29.9852 29.0
30.0057 39.0
30.0261 35.0
30.0465 29.0
30.067 23.0
30.0874 32.0
30.1078 31.0
30.1283 26.0
30.1487 32.0
30.1691 31.0
30.1896 25.0
30.21 27.0
30.2304 31.0
30.2509 28.0
30.2713 21.0
30.2917 16.0
30.3122 16.0
30.3326 19.0
30.353 28.0
30.3735 21.0
30.3939 39.0
30.4143 25.0
30.4348 30.0
30.4552 40.0
30.4756 30.0
30.496 32.0
30.5165 39.0
30.5369 35.0
30.5573 34.0
30.5778 55.0
30.5982 49.0
30.6186 37.0
30.6391 46.0
30.6595 41.0
30.6799 50.0
30.7004 42.0
30.7208 57.0
30.7412 54.0
30.7617 59.0
30.7821 70.0
30.8025 91.0
30.823 119.0
30.8434 188.0
30.8638 366.0
30.8843 527.0
30.9047 517.0
30.9251 523.0
30.9456 590.0
30.966 688.0
30.9864 688.0
31.0069 546.0
31.0273 499.0
31.0477 370.0
31.0682 320.0
31.0886 264.0
31.109 167.0
31.1295 132.0
31.1499 102.0
31.1703 86.0
31.1908 75.0
31.2112 62.0
31.2316 66.0
31.2521 71.0
31.2725 45.0
31.2929 45.0
31.3134 43.0
31.3338 40.0
31.3542 56.0
31.3747 39.0
31.3951 42.0
31.4155 63.0
31.4359 44.0
31.4564 47.0
31.4768 49.0
31.4972 52.0
31.5177 51.0
31.5381 67.0
31.5585 113.0
31.579 133.0
31.5994 102.0
31.6198 96.0
31.6403 100.0
31.6607 102.0
31.6811 78.0
31.7016 95.0
31.722 83.0
31.7424 51.0
31.7629 52.0
31.7833 44.0
31.8037 34.0
31.8242 37.0
31.8446 37.0
31.865 34.0
31.8855 45.0
31.9059 35.0
31.9263 38.0
31.9468 34.0
31.9672 39.0
31.9876 25.0
32.0081 45.0
32.0285 49.0
32.0489 50.0
32.0694 52.0
32.0898 57.0
32.1102 63.0
32.1307 74.0
32.1511 89.0
32.1715 111.0
32.192 126.0
32.2124 167.0
32.2328 229.0
32.2533 360.0
32.2737 674.0
32.2941 1093.0
32.3146 1398.0
32.335 1557.0
32.3554 1390.0
32.3758 1393.0
32.3963 1481.0
32.4167 1404.0
32.4371 909.0
32.4576 668.0
32.478 593.0
32.4984 482.0
32.5189 310.0
32.5393 164.0
32.5597 129.0
32.5802 116.0
32.6006 114.0
32.621 99.0
32.6415 77.0
32.6619 68.0
32.6823 54.0
32.7028 47.0
32.7232 40.0
32.7436 46.0
32.7641 25.0
32.7845 34.0
32.8049 25.0
32.8254 33.0
32.8458 36.0
32.8662 26.0
32.8867 27.0
32.9071 20.0
32.9275 25.0
32.948 17.0
32.9684 25.0
32.9888 21.0
33.0093 22.0
33.0297 22.0
33.0501 20.0
33.0706 25.0
33.091 18.0
33.1114 18.0
33.1319 23.0
33.1523 28.0
33.1727 24.0
33.1932 23.0
33.2136 26.0
33.234 26.0
33.2544 28.0
33.2749 34.0
33.2953 26.0
33.3157 29.0
33.3362 28.0
33.3566 32.0
33.377 30.0
33.3975 21.0
33.4179 30.0
33.4383 25.0
33.4588 28.0
33.4792 30.0
33.4996 14.0
33.5201 25.0
33.5405 22.0
33.5609 25.0
33.5814 32.0
33.6018 32.0
33.6222 32.0
33.6427 38.0
33.6631 44.0
33.6835 48.0
33.704 70.0
33.7244 94.0
33.7448 154.0
33.7653 180.0
33.7857 189.0
33.8061 210.0
33.8266 226.0
33.847 221.0
33.8674 230.0
33.8879 184.0
33.9083 140.0
33.9287 130.0
33.9492 113.0
33.9696 73.0
33.99 67.0
34.0105 53.0
34.0309 41.0
34.0513 20.0
34.0718 26.0
34.0922 30.0
34.1126 33.0
34.1331 31.0
34.1535 34.0
34.1739 17.0
34.1943 29.0
34.2148 21.0
34.2352 28.0
34.2556 22.0
34.2761 18.0
34.2965 45.0
34.3169 46.0
34.3374 28.0
34.3578 21.0
34.3782 35.0
34.3987 35.0
34.4191 32.0
34.4395 19.0
34.46 28.0
34.4804 33.0
34.5008 20.0
34.5213 17.0
34.5417 21.0
34.5621 28.0
34.5826 28.0
34.603 16.0
34.6234 24.0
34.6439 16.0
34.6643 15.0
34.6847 17.0
34.7052 16.0
34.7256 24.0
34.746 14.0
34.7665 21.0
34.7869 20.0
34.8073 17.0
34.8278 23.0
34.8482 21.0
34.8686 16.0
34.8891 18.0
34.9095 17.0
34.9299 25.0
34.9504 19.0
34.9708 13.0
34.9912 17.0
35.0117 23.0
35.0321 18.0
35.0525 17.0
35.0729 19.0
35.0934 13.0
35.1138 20.0
35.1342 21.0
35.1547 19.0
35.1751 22.0
35.1955 23.0
35.216 14.0
35.2364 29.0
35.2568 26.0
35.2773 24.0
35.2977 38.0
35.3181 32.0
35.3386 32.0
35.359 27.0
35.3794 26.0
35.3999 39.0
35.4203 29.0
35.4407 21.0
35.4612 38.0
35.4816 26.0
35.502 23.0
35.5225 25.0
35.5429 22.0
35.5633 33.0
35.5838 33.0
35.6042 48.0
35.6246 41.0
35.6451 45.0
35.6655 22.0
35.6859 27.0
35.7064 21.0
35.7268 30.0
35.7472 20.0
35.7677 23.0
35.7881 10.0
35.8085 23.0
35.829 17.0
35.8494 23.0
35.8698 27.0
35.8903 31.0
35.9107 26.0
35.9311 26.0
35.9516 28.0
35.972 25.0
35.9924 32.0
36.0128 25.0
36.0333 35.0
36.0537 21.0
36.0741 21.0
36.0946 26.0
36.115 23.0
36.1354 18.0
36.1559 22.0
36.1763 21.0
36.1967 15.0
36.2172 18.0
36.2376 14.0
36.258 17.0
36.2785 16.0
36.2989 15.0
36.3193 13.0
36.3398 19.0
36.3602 12.0
36.3806 21.0
36.4011 20.0
36.4215 21.0
36.4419 14.0
36.4624 21.0
36.4828 33.0
36.5032 28.0
36.5237 40.0
36.5441 41.0
36.5645 54.0
36.585 47.0
36.6054 49.0
36.6258 34.0
36.6463 53.0
36.6667 34.0
36.6871 34.0
36.7076 39.0
36.728 20.0
36.7484 32.0
36.7689 33.0
36.7893 37.0
36.8097 44.0
36.8302 41.0
36.8506 52.0
36.871 54.0
36.8915 87.0
36.9119 86.0
36.9323 63.0
36.9527 87.0
36.9732 112.0
36.9936 108.0
37.014 90.0
37.0345 64.0
37.0549 74.0
37.0753 64.0
37.0958 55.0
37.1162 39.0
37.1366 34.0
37.1571 19.0
37.1775 29.0
37.1979 14.0
37.2184 19.0
37.2388 25.0
37.2592 22.0
37.2797 23.0
37.3001 17.0
37.3205 19.0
37.341 18.0
37.3614 20.0
37.3818 16.0
37.4023 21.0
37.4227 17.0
37.4431 17.0
37.4636 23.0
37.484 15.0
37.5044 24.0
37.5249 14.0
37.5453 18.0
37.5657 11.0
37.5862 16.0
37.6066 22.0
37.627 12.0
37.6475 12.0
37.6679 14.0
37.6883 16.0
37.7088 20.0
37.7292 14.0
37.7496 19.0
37.7701 12.0
37.7905 24.0
37.8109 18.0
37.8313 18.0
37.8518 15.0
37.8722 21.0
37.8926 18.0
37.9131 23.0
37.9335 28.0
37.9539 16.0
37.9744 23.0
37.9948 15.0
38.0152 15.0
38.0357 15.0
38.0561 28.0
38.0765 24.0
38.097 21.0
38.1174 13.0
38.1378 13.0
38.1583 18.0
38.1787 16.0
38.1991 17.0
38.2196 16.0
38.24 20.0
38.2604 16.0
38.2809 10.0
38.3013 21.0
38.3217 32.0
38.3422 32.0
38.3626 29.0
38.383 41.0
38.4035 51.0
38.4239 62.0
38.4443 70.0
38.4648 77.0
38.4852 90.0
38.5056 86.0
38.5261 130.0
38.5465 108.0
38.5669 70.0
38.5874 72.0
38.6078 64.0
38.6282 59.0
38.6487 50.0
38.6691 36.0
38.6895 25.0
38.71 20.0
38.7304 27.0
38.7508 19.0
38.7712 22.0
38.7917 17.0
38.8121 29.0
38.8325 23.0
38.853 20.0
38.8734 13.0
38.8938 16.0
38.9143 15.0
38.9347 17.0
38.9551 18.0
38.9756 22.0
38.996 19.0
39.0164 20.0
39.0369 24.0
39.0573 17.0
39.0777 16.0
39.0982 16.0
39.1186 25.0
39.139 14.0
39.1595 17.0
39.1799 16.0
39.2003 13.0
39.2208 17.0
39.2412 14.0
39.2616 16.0
39.2821 19.0
39.3025 12.0
39.3229 11.0
39.3434 13.0
39.3638 14.0
39.3842 16.0
39.4047 24.0
39.4251 21.0
39.4455 16.0
39.466 21.0
39.4864 21.0
39.5068 15.0
39.5273 16.0
39.5477 23.0
39.5681 23.0
39.5886 27.0
39.609 27.0
39.6294 18.0
39.6498 23.0
39.6703 24.0
39.6907 14.0
39.7111 26.0
39.7316 17.0
39.752 15.0
39.7724 16.0
39.7929 16.0
39.8133 18.0
39.8337 23.0
39.8542 13.0
39.8746 15.0
39.895 20.0
39.9155 15.0
39.9359 23.0
39.9563 8.0
39.9768 18.0
39.9972 15.0
40.0176 14.0
40.0381 24.0
40.0585 14.0
40.0789 20.0
40.0994 9.0
40.1198 19.0
40.1402 23.0
40.1607 22.0
40.1811 21.0
40.2015 27.0
40.222 21.0
40.2424 31.0
40.2628 16.0
40.2833 35.0
40.3037 28.0
40.3241 30.0
40.3446 27.0
40.365 22.0
40.3854 36.0
40.4059 26.0
40.4263 21.0
40.4467 24.0
40.4672 21.0
40.4876 22.0
40.508 29.0
40.5285 20.0
40.5489 22.0
40.5693 21.0
40.5897 17.0
40.6102 12.0
40.6306 19.0
40.651 23.0
40.6715 16.0
40.6919 24.0
40.7123 28.0
40.7328 28.0
40.7532 26.0
40.7736 34.0
40.7941 44.0
40.8145 81.0
40.8349 75.0
40.8554 114.0
40.8758 165.0
40.8962 126.0
40.9167 136.0
40.9371 124.0
40.9575 116.0
40.978 106.0
40.9984 84.0
41.0188 65.0
41.0393 73.0
41.0597 35.0
41.0801 42.0
41.1006 31.0
41.121 25.0
41.1414 19.0
41.1619 16.0
41.1823 11.0
41.2027 20.0
41.2232 12.0
41.2436 16.0
41.264 18.0
41.2845 23.0
41.3049 19.0
41.3253 18.0
41.3458 22.0
41.3662 8.0
41.3866 26.0
41.4071 24.0
41.4275 19.0
41.4479 14.0
41.4684 21.0
41.4888 14.0
41.5092 19.0
41.5296 12.0
41.5501 12.0
41.5705 11.0
41.5909 18.0
41.6114 21.0
41.6318 19.0
41.6522 17.0
41.6727 13.0
41.6931 14.0
41.7135 17.0
41.734 24.0
41.7544 24.0
41.7748 24.0
41.7953 15.0
41.8157 16.0
41.8361 21.0
41.8566 21.0
41.877 12.0
41.8974 14.0
41.9179 16.0
41.9383 14.0
41.9587 17.0
41.9792 12.0
41.9996 20.0
42.02 19.0
42.0405 13.0
42.0609 20.0
42.0813 16.0
42.1018 17.0
42.1222 24.0
42.1426 13.0
42.1631 27.0
42.1835 22.0
42.2039 26.0
42.2244 32.0
42.2448 42.0
42.2652 40.0
42.2857 47.0
42.3061 72.0
42.3265 61.0
42.347 82.0
42.3674 64.0
42.3878 77.0
42.4082 73.0
42.4287 55.0
42.4491 57.0
42.4695 54.0
42.49 45.0
42.5104 35.0
42.5308 42.0
42.5513 31.0
42.5717 33.0
42.5921 25.0
42.6126 23.0
42.633 26.0
42.6534 17.0
42.6739 16.0
42.6943 24.0
42.7147 22.0
42.7352 29.0
42.7556 29.0
42.776 21.0
42.7965 33.0
42.8169 32.0
42.8373 23.0
42.8578 26.0
42.8782 27.0
42.8986 19.0
42.9191 24.0
42.9395 30.0
42.9599 32.0
42.9804 30.0
43.0008 35.0
43.0212 34.0
43.0417 39.0
43.0621 32.0
43.0825 36.0
43.103 41.0
43.1234 61.0
43.1438 57.0
43.1643 60.0
43.1847 37.0
43.2051 68.0
43.2256 36.0
43.246 38.0
43.2664 37.0
43.2869 45.0
43.3073 35.0
43.3277 27.0
43.3481 28.0
43.3686 34.0
43.389 18.0
43.4094 16.0
43.4299 18.0
43.4503 21.0
43.4707 24.0
43.4912 27.0
43.5116 34.0
43.532 20.0
43.5525 16.0
43.5729 20.0
43.5933 26.0
43.6138 18.0
43.6342 26.0
43.6546 28.0
43.6751 10.0
43.6955 24.0
43.7159 18.0
43.7364 22.0
43.7568 24.0
43.7772 29.0
43.7977 14.0
43.8181 18.0
43.8385 18.0
43.859 26.0
43.8794 17.0
43.8998 19.0
43.9203 15.0
43.9407 25.0
43.9611 22.0
43.9816 28.0
44.002 25.0
44.0224 26.0
44.0429 27.0
44.0633 29.0
44.0837 48.0
44.1042 52.0
44.1246 75.0
44.145 62.0
44.1655 73.0
44.1859 68.0
44.2063 85.0
44.2267 102.0
44.2472 99.0
44.2676 93.0
44.288 74.0
44.3085 66.0
44.3289 80.0
44.3493 68.0
44.3698 49.0
44.3902 59.0
44.4106 41.0
44.4311 54.0
44.4515 47.0
44.4719 49.0
44.4924 44.0
44.5128 44.0
44.5332 41.0
44.5537 35.0
44.5741 53.0
44.5945 39.0
44.615 52.0
44.6354 50.0
44.6558 92.0
44.6763 129.0
44.6967 112.0
44.7171 157.0
44.7376 141.0
44.758 135.0
44.7784 122.0
44.7989 123.0
44.8193 147.0
44.8397 123.0
44.8602 91.0
44.8806 86.0
44.901 77.0
44.9215 62.0
44.9419 59.0
44.9623 42.0
44.9828 36.0
45.0032 21.0
45.0236 40.0
45.0441 28.0
45.0645 36.0
45.0849 27.0
45.1054 26.0
45.1258 30.0
45.1462 31.0
45.1666 32.0
45.1871 29.0
45.2075 29.0
45.2279 28.0
45.2484 31.0
45.2688 40.0
45.2892 31.0
45.3097 32.0
45.3301 49.0
45.3505 31.0
45.371 30.0
45.3914 40.0
45.4118 41.0
45.4323 34.0
45.4527 25.0
45.4731 27.0
45.4936 11.0
45.514 35.0
45.5344 31.0
45.5549 26.0
45.5753 26.0
45.5957 13.0
45.6162 23.0
45.6366 19.0
45.657 36.0
45.6775 14.0
45.6979 31.0
45.7183 27.0
45.7388 31.0
45.7592 25.0
45.7796 28.0
45.8001 30.0
45.8205 32.0
45.8409 20.0
45.8614 32.0
45.8818 20.0
45.9022 21.0
45.9227 16.0
45.9431 18.0
45.9635 19.0
45.984 19.0
46.0044 20.0
46.0248 26.0
46.0453 15.0
46.0657 22.0
46.0861 17.0
46.1065 17.0
46.127 12.0
46.1474 19.0
46.1678 18.0
46.1883 17.0
46.2087 15.0
46.2291 17.0
46.2496 19.0
46.27 20.0
46.2904 16.0
46.3109 15.0
46.3313 9.0
46.3517 15.0
46.3722 16.0
46.3926 14.0
46.413 17.0
46.4335 8.0
46.4539 19.0
46.4743 21.0
46.4948 12.0
46.5152 27.0
46.5356 14.0
46.5561 19.0
46.5765 15.0
46.5969 16.0
46.6174 12.0
46.6378 10.0
46.6582 13.0
46.6787 25.0
46.6991 17.0
46.7195 17.0
46.74 10.0
46.7604 15.0
46.7808 19.0
46.8013 24.0
46.8217 30.0
46.8421 30.0
46.8626 21.0
46.883 21.0
46.9034 30.0
46.9239 24.0
46.9443 26.0
46.9647 19.0
46.9851 25.0
47.0056 20.0
47.026 31.0
47.0464 20.0
47.0669 32.0
47.0873 33.0
47.1077 49.0
47.1282 58.0
47.1486 81.0
47.169 76.0
47.1895 113.0
47.2099 97.0
47.2303 108.0
47.2508 112.0
47.2712 144.0
47.2916 140.0
47.3121 99.0
47.3325 88.0
47.3529 84.0
47.3734 67.0
47.3938 63.0
47.4142 58.0
47.4347 48.0
47.4551 44.0
47.4755 41.0
47.496 32.0
47.5164 20.0
47.5368 32.0
47.5573 17.0
47.5777 30.0
47.5981 25.0
47.6186 21.0
47.639 19.0
47.6594 20.0
47.6799 20.0
47.7003 17.0
47.7207 15.0
47.7412 30.0
47.7616 22.0
47.782 19.0
47.8025 18.0
47.8229 13.0
47.8433 20.0
47.8638 16.0
47.8842 15.0
47.9046 18.0
47.925 12.0
47.9455 24.0
47.9659 17.0
47.9863 15.0
48.0068 24.0
48.0272 13.0
48.0476 16.0
48.0681 31.0
48.0885 27.0
48.1089 32.0
48.1294 20.0
48.1498 19.0
48.1702 22.0
48.1907 25.0
48.2111 17.0
48.2315 25.0
48.252 22.0
48.2724 24.0
48.2928 20.0
48.3133 20.0
48.3337 24.0
48.3541 13.0
48.3746 13.0
48.395 20.0
48.4154 18.0
48.4359 25.0
48.4563 20.0
48.4767 15.0
48.4972 19.0
48.5176 20.0
48.538 16.0
48.5585 21.0
48.5789 22.0
48.5993 26.0
48.6198 24.0
48.6402 29.0
48.6606 29.0
48.6811 21.0
48.7015 32.0
48.7219 20.0
48.7424 40.0
48.7628 24.0
48.7832 31.0
48.8036 47.0
48.8241 37.0
48.8445 43.0
48.8649 43.0
48.8854 66.0
48.9058 85.0
48.9262 113.0
48.9467 138.0
48.9671 140.0
48.9875 150.0
49.008 203.0
49.0284 218.0
49.0488 214.0
49.0693 163.0
49.0897 116.0
49.1101 107.0
49.1306 127.0
49.151 121.0
49.1714 106.0
49.1919 101.0
49.2123 69.0
49.2327 56.0
49.2532 45.0
49.2736 33.0
49.294 40.0
49.3145 31.0
49.3349 29.0
49.3553 31.0
49.3758 28.0
49.3962 41.0
49.4166 26.0
49.4371 23.0
49.4575 30.0
49.4779 28.0
49.4984 27.0
49.5188 33.0
49.5392 25.0
49.5597 61.0
49.5801 61.0
49.6005 54.0
49.621 56.0
49.6414 59.0
49.6618 55.0
49.6823 80.0
49.7027 73.0
49.7231 60.0
49.7435 48.0
49.764 35.0
49.7844 51.0
49.8048 50.0
49.8253 59.0
49.8457 40.0
49.8661 35.0
49.8866 29.0
49.907 23.0
49.9274 27.0
49.9479 30.0
49.9683 31.0
49.9887 48.0
50.0092 33.0
50.0296 56.0
50.05 76.0
50.0705 71.0
50.0909 95.0
50.1113 118.0
50.1318 139.0
50.1522 121.0
50.1726 102.0
50.1931 99.0
50.2135 60.0
50.2339 82.0
50.2544 91.0
50.2748 83.0
50.2952 60.0
50.3157 53.0
50.3361 37.0
50.3565 38.0
50.377 37.0
50.3974 36.0
50.4178 25.0
50.4383 25.0
50.4587 27.0
50.4791 26.0
50.4996 24.0
50.52 31.0
50.5404 17.0
50.5609 31.0
50.5813 21.0
50.6017 26.0
50.6221 23.0
50.6426 25.0
50.663 26.0
50.6834 23.0
50.7039 33.0
50.7243 20.0
50.7447 16.0
50.7652 24.0
50.7856 24.0
50.806 15.0
50.8265 15.0
50.8469 16.0
50.8673 20.0
50.8878 18.0
50.9082 17.0
50.9286 30.0
50.9491 22.0
50.9695 22.0
50.9899 11.0
51.0104 20.0
51.0308 17.0
51.0512 18.0
51.0717 16.0
51.0921 19.0
51.1125 16.0
51.133 22.0
51.1534 16.0
51.1738 26.0
51.1943 8.0
51.2147 21.0
51.2351 23.0
51.2556 17.0
51.276 17.0
51.2964 40.0
51.3169 23.0
51.3373 26.0
51.3577 20.0
51.3782 28.0
51.3986 27.0
51.419 40.0
51.4395 22.0
51.4599 29.0
51.4803 26.0
51.5008 30.0
51.5212 19.0
51.5416 30.0
51.562 28.0
51.5825 23.0
51.6029 32.0
51.6233 14.0
51.6438 20.0
51.6642 24.0
51.6846 22.0
51.7051 27.0
51.7255 24.0
51.7459 28.0
51.7664 13.0
51.7868 16.0
51.8072 17.0
51.8277 15.0
51.8481 10.0
51.8685 8.0
51.889 19.0
51.9094 13.0
51.9298 12.0
51.9503 18.0
51.9707 16.0
51.9911 10.0
52.0116 9.0
52.032 19.0
52.0524 18.0
52.0729 13.0
52.0933 18.0
52.1137 17.0
52.1342 17.0
52.1546 16.0
52.175 9.0
52.1955 12.0
52.2159 13.0
52.2363 11.0
52.2568 12.0
52.2772 17.0
52.2976 19.0
52.3181 15.0
52.3385 15.0
52.3589 19.0
52.3794 17.0
52.3998 13.0
52.4202 26.0
52.4407 18.0
52.4611 21.0
52.4815 29.0
52.5019 12.0
52.5224 16.0
52.5428 24.0
52.5632 22.0
52.5837 20.0
52.6041 34.0
52.6245 24.0
52.645 33.0
52.6654 31.0
52.6858 30.0
52.7063 37.0
52.7267 39.0
52.7471 53.0
52.7676 61.0
52.788 89.0
52.8084 105.0
52.8289 109.0
52.8493 135.0
52.8697 126.0
52.8902 110.0
52.9106 91.0
52.931 71.0
52.9515 77.0
52.9719 65.0
52.9923 85.0
53.0128 79.0
53.0332 61.0
53.0536 57.0
53.0741 49.0
53.0945 34.0
53.1149 30.0
53.1354 30.0
53.1558 17.0
53.1762 31.0
53.1967 22.0
53.2171 22.0
53.2375 29.0
53.258 28.0
53.2784 20.0
53.2988 24.0
53.3193 27.0
53.3397 41.0
53.3601 25.0
53.3805 26.0
53.401 36.0
53.4214 20.0
53.4418 32.0
53.4623 26.0
53.4827 26.0
53.5031 18.0
53.5236 20.0
53.544 18.0
53.5644 15.0
53.5849 23.0
53.6053 24.0
53.6257 19.0
53.6462 17.0
53.6666 18.0
53.687 20.0
53.7075 21.0
53.7279 15.0
53.7483 11.0
53.7688 18.0
53.7892 18.0
53.8096 17.0
53.8301 17.0
53.8505 8.0
53.8709 17.0
53.8914 14.0
53.9118 12.0
53.9322 13.0
53.9527 14.0
53.9731 13.0
53.9935 16.0
54.014 12.0
54.0344 17.0
54.0548 17.0
54.0753 14.0
54.0957 15.0
54.1161 20.0
54.1366 9.0
54.157 19.0
54.1774 23.0
54.1979 19.0
54.2183 16.0
54.2387 17.0
54.2592 17.0
54.2796 25.0
54.3 20.0
54.3204 26.0
54.3409 35.0
54.3613 21.0
54.3817 25.0
54.4022 26.0
54.4226 24.0
54.443 26.0
54.4635 33.0
54.4839 25.0
54.5043 27.0
54.5248 32.0
54.5452 27.0
54.5656 20.0
54.5861 16.0
54.6065 25.0
54.6269 14.0
54.6474 30.0
54.6678 35.0
54.6882 30.0
54.7087 31.0
54.7291 19.0
54.7495 24.0
54.77 30.0
54.7904 27.0
54.8108 27.0
54.8313 33.0
54.8517 29.0
54.8721 12.0
54.8926 19.0
54.913 23.0
54.9334 16.0
54.9539 22.0
54.9743 18.0
54.9947 24.0
55.0152 29.0
55.0356 23.0
55.056 20.0
55.0765 18.0
55.0969 21.0
55.1173 12.0
55.1378 16.0
55.1582 34.0
55.1786 15.0
55.199 20.0
55.2195 15.0
55.2399 22.0
55.2603 23.0
55.2808 35.0
55.3012 24.0
55.3216 27.0
55.3421 23.0
55.3625 31.0
55.3829 26.0
55.4034 20.0
55.4238 27.0
55.4442 27.0
55.4647 22.0
55.4851 27.0
55.5055 29.0
55.526 20.0
55.5464 28.0
55.5668 32.0
55.5873 26.0
55.6077 35.0
55.6281 43.0
55.6486 44.0
55.669 51.0
55.6894 68.0
55.7099 110.0
55.7303 128.0
55.7507 206.0
55.7712 174.0
55.7916 126.0
55.812 105.0
55.8325 113.0
55.8529 89.0
55.8733 101.0
55.8938 118.0
55.9142 105.0
55.9346 60.0
55.9551 73.0
55.9755 56.0
55.9959 40.0
56.0164 32.0
56.0368 32.0
56.0572 23.0
56.0777 24.0
56.0981 17.0
56.1185 20.0
56.1389 12.0
56.1594 12.0
56.1798 21.0
56.2002 18.0
56.2207 17.0
56.2411 17.0
56.2615 18.0
56.282 16.0
56.3024 19.0
56.3228 20.0
56.3433 17.0
56.3637 9.0
56.3841 29.0
56.4046 27.0
56.425 19.0
56.4454 23.0
56.4659 24.0
56.4863 20.0
56.5067 24.0
56.5272 23.0
56.5476 21.0
56.568 29.0
56.5885 20.0
56.6089 12.0
56.6293 14.0
56.6498 17.0
56.6702 20.0
56.6906 18.0
56.7111 22.0
56.7315 17.0
56.7519 23.0
56.7724 28.0
56.7928 37.0
56.8132 33.0
56.8337 21.0
56.8541 18.0
56.8745 24.0
56.895 27.0
56.9154 24.0
56.9358 33.0
56.9563 48.0
56.9767 40.0
56.9971 38.0
57.0176 21.0
57.038 18.0
57.0584 21.0
57.0788 19.0
57.0993 27.0
57.1197 21.0
57.1401 23.0
57.1606 20.0
57.181 23.0
57.2014 19.0
57.2219 15.0
57.2423 24.0
57.2627 15.0
57.2832 24.0
57.3036 26.0
57.324 17.0
57.3445 17.0
57.3649 27.0
57.3853 26.0
57.4058 32.0
57.4262 37.0
57.4466 38.0
57.4671 42.0
57.4875 51.0
57.5079 59.0
57.5284 59.0
57.5488 51.0
57.5692 81.0
57.5897 75.0
57.6101 67.0
57.6305 81.0
57.651 84.0
57.6714 59.0
57.6918 55.0
57.7123 66.0
57.7327 51.0
57.7531 61.0
57.7736 55.0
57.794 54.0
57.8144 56.0
57.8349 51.0
57.8553 43.0
57.8757 48.0
57.8962 42.0
57.9166 45.0
57.937 67.0
57.9574 57.0
57.9779 59.0
57.9983 36.0
58.0187 47.0
58.0392 32.0
58.0596 41.0
58.08 41.0
58.1005 39.0
58.1209 47.0
58.1413 27.0
58.1618 32.0
58.1822 28.0
58.2026 28.0
58.2231 22.0
58.2435 24.0
58.2639 31.0
58.2844 25.0
58.3048 17.0
58.3252 19.0
58.3457 20.0
58.3661 16.0
58.3865 20.0
58.407 37.0
58.4274 20.0
58.4478 25.0
58.4683 25.0
58.4887 32.0
58.5091 20.0
58.5296 25.0
58.55 16.0
58.5704 25.0
58.5909 30.0
58.6113 17.0
58.6317 29.0
58.6522 24.0
58.6726 25.0
58.693 26.0
58.7135 30.0
58.7339 27.0
58.7543 36.0
58.7748 34.0
58.7952 31.0
58.8156 43.0
58.8361 32.0
58.8565 59.0
58.8769 44.0
58.8973 46.0
58.9178 61.0
58.9382 50.0
58.9586 69.0
58.9791 93.0
58.9995 117.0
59.0199 142.0
59.0404 140.0
59.0608 181.0
59.0812 234.0
59.1017 290.0
59.1221 364.0
59.1425 376.0
59.163 250.0
59.1834 174.0
59.2038 151.0
59.2243 135.0
59.2447 158.0
59.2651 183.0
59.2856 197.0
59.306 201.0
59.3264 128.0
59.3469 73.0
59.3673 61.0
59.3877 54.0
59.4082 47.0
59.4286 58.0
59.449 37.0
59.4695 38.0
59.4899 37.0
59.5103 41.0
59.5308 33.0
59.5512 23.0
59.5716 40.0
59.5921 37.0
59.6125 50.0
59.6329 50.0
59.6534 53.0
59.6738 68.0
59.6942 73.0
59.7147 48.0
59.7351 47.0
59.7555 39.0
59.7759 37.0
59.7964 29.0
59.8168 48.0
59.8372 48.0
59.8577 42.0
59.8781 29.0
59.8985 22.0
59.919 33.0
59.9394 33.0
59.9598 23.0
59.9803 21.0
60.0007 25.0
60.0211 28.0
60.0416 30.0
60.062 16.0
60.0824 20.0
60.1029 29.0
60.1233 19.0
60.1437 14.0
60.1642 17.0
60.1846 30.0
60.205 25.0
60.2255 24.0
60.2459 22.0
60.2663 20.0
60.2868 24.0
60.3072 24.0
60.3276 29.0
60.3481 19.0
60.3685 33.0
60.3889 28.0
60.4094 34.0
60.4298 27.0
60.4502 31.0
60.4707 39.0
60.4911 37.0
60.5115 51.0
60.532 67.0
60.5524 67.0
60.5728 73.0
60.5933 67.0
60.6137 76.0
60.6341 97.0
60.6546 121.0
60.675 138.0
60.6954 178.0
60.7158 219.0
60.7363 296.0
60.7567 329.0
60.7771 258.0
60.7976 297.0
60.818 331.0
60.8384 316.0
60.8589 261.0
60.8793 221.0
60.8997 202.0
60.9202 173.0
60.9406 171.0
60.961 173.0
60.9815 163.0
61.0019 157.0
61.0223 131.0
61.0428 82.0
61.0632 64.0
61.0836 54.0
61.1041 57.0
61.1245 36.0
61.1449 39.0
61.1654 36.0
61.1858 48.0
61.2062 33.0
61.2267 37.0
61.2471 40.0
61.2675 37.0
61.288 32.0
61.3084 27.0
61.3288 50.0
61.3493 31.0
61.3697 31.0
61.3901 32.0
61.4106 23.0
61.431 27.0
61.4514 27.0
61.4719 22.0
61.4923 23.0
61.5127 27.0
61.5332 16.0
61.5536 26.0
61.574 20.0
61.5945 20.0
61.6149 21.0
61.6353 30.0
61.6557 15.0
61.6762 15.0
61.6966 23.0
61.717 20.0
61.7375 25.0
61.7579 19.0
61.7783 20.0
61.7988 21.0
61.8192 23.0
61.8396 28.0
61.8601 34.0
61.8805 22.0
61.9009 31.0
61.9214 23.0
61.9418 27.0
61.9622 20.0
61.9827 35.0
62.0031 30.0
62.0235 24.0
62.044 19.0
62.0644 20.0
62.0848 17.0
62.1053 27.0
62.1257 18.0
62.1461 15.0
62.1666 32.0
62.187 16.0
62.2074 30.0
62.2279 32.0
62.2483 23.0
62.2687 19.0
62.2892 25.0
62.3096 21.0
62.33 30.0
62.3505 24.0
62.3709 19.0
62.3913 37.0
62.4118 31.0
62.4322 21.0
62.4526 25.0
62.4731 39.0
62.4935 31.0
62.5139 29.0
62.5343 34.0
62.5548 37.0
62.5752 33.0
62.5956 26.0
62.6161 27.0
62.6365 35.0
62.6569 25.0
62.6774 33.0
62.6978 32.0
62.7182 38.0
62.7387 27.0
62.7591 34.0
62.7795 45.0
62.8 48.0
62.8204 53.0
62.8408 63.0
62.8613 71.0
62.8817 56.0
62.9021 74.0
62.9226 63.0
62.943 49.0
62.9634 43.0
62.9839 37.0
63.0043 38.0
63.0247 45.0
63.0452 36.0
63.0656 45.0
63.086 51.0
63.1065 37.0
63.1269 38.0
63.1473 26.0
63.1678 28.0
63.1882 33.0
63.2086 32.0
63.2291 41.0
63.2495 50.0
63.2699 36.0
63.2904 41.0
63.3108 32.0
63.3312 40.0
63.3517 45.0
63.3721 40.0
63.3925 45.0
63.413 27.0
63.4334 34.0
63.4538 43.0
63.4742 35.0
63.4947 32.0
63.5151 54.0
63.5355 59.0
63.556 53.0
63.5764 60.0
63.5968 85.0
63.6173 89.0
63.6377 124.0
63.6581 171.0
63.6786 189.0
63.699 176.0
63.7194 228.0
63.7399 194.0
63.7603 193.0
63.7807 162.0
63.8012 156.0
63.8216 144.0
63.842 161.0
63.8625 142.0
63.8829 152.0
63.9033 153.0
63.9238 117.0
63.9442 118.0
63.9646 106.0
63.9851 85.0
64.0055 53.0
64.0259 54.0
64.0464 49.0
64.0668 49.0
64.0872 46.0
64.1077 31.0
64.1281 32.0
64.1485 37.0
64.169 27.0
64.1894 25.0
64.2098 32.0
64.2303 23.0
64.2507 28.0
64.2711 26.0
64.2916 32.0
64.312 27.0
64.3324 16.0
64.3528 28.0
64.3733 21.0
64.3937 21.0
64.4141 18.0
64.4346 16.0
64.455 14.0
64.4754 18.0
64.4959 16.0
64.5163 24.0
64.5367 22.0
64.5572 9.0
64.5776 17.0
64.598 21.0
64.6185 27.0
64.6389 12.0
64.6593 14.0
64.6798 15.0
64.7002 16.0
64.7206 16.0
64.7411 19.0
64.7615 16.0
64.7819 22.0
64.8024 18.0
64.8228 14.0
64.8432 17.0
64.8637 17.0
64.8841 24.0
64.9045 20.0
64.925 18.0
64.9454 23.0
64.9658 16.0
64.9863 18.0
65.0067 27.0
65.0271 30.0
65.0476 17.0
65.068 25.0
65.0884 14.0
65.1089 11.0
65.1293 17.0
65.1497 23.0
65.1702 21.0
65.1906 25.0
65.211 24.0
65.2315 16.0
65.2519 22.0
65.2723 27.0
65.2927 24.0
65.3132 21.0
65.3336 27.0
65.354 27.0
65.3745 30.0
65.3949 35.0
65.4153 18.0
65.4358 22.0
65.4562 26.0
65.4766 28.0
65.4971 26.0
65.5175 23.0
65.5379 22.0
65.5584 38.0
65.5788 25.0
65.5992 23.0
65.6197 29.0
65.6401 15.0
65.6605 17.0
65.681 25.0
65.7014 27.0
65.7218 23.0
65.7423 28.0
65.7627 24.0
65.7831 19.0
65.8036 23.0
65.824 18.0
65.8444 19.0
65.8649 27.0
65.8853 29.0
65.9057 20.0
65.9262 21.0
65.9466 25.0
65.967 21.0
65.9875 24.0
66.0079 28.0
66.0283 24.0
66.0488 24.0
66.0692 21.0
66.0896 19.0
66.1101 25.0
66.1305 22.0
66.1509 19.0
66.1714 16.0
66.1918 15.0
66.2122 16.0
66.2326 29.0
66.2531 25.0
66.2735 18.0
66.2939 13.0
66.3144 27.0
66.3348 28.0
66.3552 19.0
66.3757 24.0
66.3961 22.0
66.4165 19.0
66.437 27.0
66.4574 21.0
66.4778 33.0
66.4983 26.0
66.5187 27.0
66.5391 26.0
66.5596 42.0
66.58 40.0
66.6004 42.0
66.6209 52.0
66.6413 51.0
66.6617 54.0
66.6822 73.0
66.7026 68.0
66.723 113.0
66.7435 147.0
66.7639 138.0
66.7843 128.0
66.8048 120.0
66.8252 143.0
66.8456 134.0
66.8661 121.0
66.8865 96.0
66.9069 94.0
66.9274 103.0
66.9478 81.0
66.9682 77.0
66.9887 83.0
67.0091 91.0
67.0295 68.0
67.05 76.0
67.0704 54.0
67.0908 44.0
67.1112 39.0
67.1317 35.0
67.1521 39.0
67.1725 28.0
67.193 27.0
67.2134 23.0
67.2338 30.0
67.2543 37.0
67.2747 22.0
67.2951 29.0
67.3156 30.0
67.336 26.0
67.3564 29.0
67.3769 27.0
67.3973 46.0
67.4177 40.0
67.4382 48.0
67.4586 39.0
67.479 47.0
67.4995 35.0
67.5199 35.0
67.5403 38.0
67.5608 27.0
67.5812 27.0
67.6016 31.0
67.6221 31.0
67.6425 33.0
67.6629 28.0
67.6834 32.0
67.7038 18.0
67.7242 18.0
67.7447 23.0
67.7651 27.0
67.7855 26.0
67.806 44.0
67.8264 38.0
67.8468 47.0
67.8673 43.0
67.8877 46.0
67.9081 49.0
67.9286 51.0
67.949 36.0
67.9694 34.0
67.9899 34.0
68.0103 34.0
68.0307 39.0
68.0511 34.0
68.0716 39.0
68.092 37.0
68.1124 31.0
68.1329 33.0
68.1533 21.0
68.1737 26.0
68.1942 22.0
68.2146 15.0
68.235 28.0
68.2555 22.0
68.2759 26.0
68.2963 23.0
68.3168 21.0
68.3372 18.0
68.3576 25.0
68.3781 18.0
68.3985 23.0
68.4189 23.0
68.4394 18.0
68.4598 27.0
68.4802 24.0
68.5007 28.0
68.5211 20.0
68.5415 18.0
68.562 27.0
68.5824 17.0
68.6028 20.0
68.6233 22.0
68.6437 23.0
68.6641 28.0
68.6846 31.0
68.705 34.0
68.7254 26.0
68.7459 26.0
68.7663 23.0
68.7867 25.0
68.8072 19.0
68.8276 26.0
68.848 19.0
68.8685 25.0
68.8889 32.0
68.9093 37.0
68.9297 38.0
68.9502 30.0
68.9706 35.0
68.991 31.0
69.0115 52.0
69.0319 39.0
69.0523 50.0
69.0728 36.0
69.0932 45.0
69.1136 35.0
69.1341 39.0
69.1545 30.0
69.1749 31.0
69.1954 38.0
69.2158 28.0
69.2362 34.0
69.2567 24.0
69.2771 41.0
69.2975 30.0
69.318 29.0
69.3384 22.0
69.3588 22.0
69.3793 23.0
69.3997 24.0
69.4201 24.0
69.4406 17.0
69.461 16.0
69.4814 24.0
69.5019 22.0
69.5223 29.0
69.5427 32.0
69.5632 27.0
69.5836 22.0
69.604 26.0
69.6245 18.0
69.6449 26.0
69.6653 20.0
69.6858 25.0
69.7062 32.0
69.7266 17.0
69.7471 24.0
69.7675 35.0
69.7879 37.0
69.8084 51.0
69.8288 38.0
69.8492 35.0
69.8696 39.0
69.8901 44.0
69.9105 44.0
69.9309 25.0
69.9514 37.0
69.9718 43.0
69.9922 34.0
70.0127 42.0
70.0331 39.0
70.0535 24.0
70.074 30.0
70.0944 25.0
70.1148 27.0
70.1353 26.0
70.1557 26.0
70.1761 35.0
70.1966 26.0
70.217 33.0
70.2374 30.0
70.2579 38.0
70.2783 35.0
70.2987 35.0
70.3192 33.0
70.3396 30.0
70.36 34.0
70.3805 35.0
70.4009 29.0
70.4213 33.0
70.4418 25.0
70.4622 36.0
70.4826 28.0
70.5031 37.0
70.5235 45.0
70.5439 36.0
70.5644 32.0
70.5848 41.0
70.6052 45.0
70.6257 52.0
70.6461 38.0
70.6665 52.0
70.687 53.0
70.7074 66.0
70.7278 74.0
70.7483 93.0
70.7687 98.0
70.7891 141.0
70.8095 146.0
70.83 153.0
70.8504 175.0
70.8708 130.0
70.8913 105.0
70.9117 62.0
70.9321 82.0
70.9526 88.0
70.973 89.0
70.9934 75.0
71.0139 88.0
71.0343 96.0
71.0547 81.0
71.0752 67.0
71.0956 50.0
71.116 71.0
71.1365 38.0
71.1569 40.0
71.1773 35.0
71.1978 29.0
71.2182 37.0
71.2386 29.0
71.2591 32.0
71.2795 34.0
71.2999 27.0
71.3204 18.0
71.3408 28.0
71.3612 22.0
71.3817 27.0
71.4021 27.0
71.4225 22.0
71.443 33.0
71.4634 25.0
71.4838 20.0
71.5043 31.0
71.5247 22.0
71.5451 28.0
71.5656 32.0
71.586 20.0
71.6064 36.0
71.6269 34.0
71.6473 18.0
71.6677 30.0
71.6881 25.0
71.7086 32.0
71.729 23.0
71.7494 27.0
71.7699 25.0
71.7903 21.0
71.8107 29.0
71.8312 27.0
71.8516 25.0
71.872 17.0
71.8925 21.0
71.9129 26.0
71.9333 24.0
71.9538 31.0
71.9742 30.0
71.9946 40.0
72.0151 46.0
72.0355 39.0
72.0559 40.0
72.0764 55.0
72.0968 57.0
72.1172 56.0
72.1377 45.0
72.1581 65.0
72.1785 47.0
72.199 50.0
72.2194 43.0
72.2398 48.0
72.2603 36.0
72.2807 55.0
72.3011 24.0
72.3216 44.0
72.342 41.0
72.3624 28.0
72.3829 31.0
72.4033 32.0
72.4237 27.0
72.4442 18.0
72.4646 22.0
72.485 26.0
72.5055 31.0
72.5259 20.0
72.5463 17.0
72.5668 23.0
72.5872 31.0
72.6076 16.0
72.628 22.0
72.6485 20.0
72.6689 14.0
72.6893 29.0
72.7098 16.0
72.7302 19.0
72.7506 23.0
72.7711 19.0
72.7915 13.0
72.8119 15.0
72.8324 28.0
72.8528 20.0
72.8732 20.0
72.8937 17.0
72.9141 23.0
72.9345 15.0
72.955 23.0
72.9754 14.0
72.9958 12.0
73.0163 17.0
73.0367 17.0
73.0571 18.0
73.0776 21.0
73.098 17.0
73.1184 20.0
73.1389 18.0
73.1593 24.0
73.1797 26.0
73.2002 16.0
73.2206 18.0
73.241 19.0
73.2615 12.0
73.2819 18.0
73.3023 19.0
73.3228 22.0
73.3432 19.0
73.3636 17.0
73.3841 22.0
73.4045 12.0
73.4249 19.0
73.4454 11.0
73.4658 25.0
73.4862 21.0
73.5066 18.0
73.5271 17.0
73.5475 16.0
73.5679 9.0
73.5884 24.0
73.6088 17.0
73.6292 18.0
73.6497 17.0
73.6701 16.0
73.6905 15.0
73.711 20.0
73.7314 20.0
73.7518 17.0
73.7723 23.0
73.7927 19.0
73.8131 9.0
73.8336 19.0
73.854 23.0
73.8744 15.0
73.8949 23.0
73.9153 14.0
73.9357 16.0
73.9562 16.0
73.9766 21.0
73.997 11.0
74.0175 11.0
74.0379 18.0
74.0583 18.0
74.0788 13.0
74.0992 10.0
74.1196 15.0
74.1401 15.0
74.1605 17.0
74.1809 18.0
74.2014 22.0
74.2218 16.0
74.2422 15.0
74.2627 17.0
74.2831 25.0
74.3035 15.0
74.324 15.0
74.3444 12.0
74.3648 15.0
74.3853 17.0
74.4057 12.0
74.4261 17.0
74.4465 19.0
74.467 19.0
74.4874 8.0
74.5078 29.0
74.5283 14.0
74.5487 18.0
74.5691 17.0
74.5896 15.0
74.61 32.0
74.6304 22.0
74.6509 24.0
74.6713 22.0
74.6917 15.0
74.7122 29.0
74.7326 19.0
74.753 19.0
74.7735 22.0
74.7939 25.0
74.8143 14.0
74.8348 17.0
74.8552 28.0
74.8756 20.0
74.8961 16.0
74.9165 17.0
74.9369 18.0
74.9574 18.0
74.9778 22.0
74.9982 16.0
75.0187 12.0
75.0391 23.0
75.0595 29.0
75.08 22.0
75.1004 26.0
75.1208 22.0
75.1413 31.0
75.1617 32.0
75.1821 21.0
75.2026 26.0
75.223 21.0
75.2434 13.0
75.2639 15.0
75.2843 20.0
75.3047 12.0
75.3252 20.0
75.3456 21.0
75.366 21.0
75.3864 21.0
75.4069 27.0
75.4273 21.0
75.4477 25.0
75.4682 21.0
75.4886 24.0
75.509 30.0
75.5295 22.0
75.5499 20.0
75.5703 28.0
75.5908 30.0
75.6112 23.0
75.6316 36.0
75.6521 43.0
75.6725 44.0
75.6929 38.0
75.7134 43.0
75.7338 41.0
75.7542 41.0
75.7747 54.0
75.7951 56.0
75.8155 47.0
75.836 77.0
75.8564 64.0
75.8768 43.0
75.8973 45.0
75.9177 28.0
75.9381 39.0
75.9586 28.0
75.979 27.0
75.9994 28.0
76.0199 41.0
76.0403 32.0
76.0607 38.0
76.0812 31.0
76.1016 27.0
76.122 20.0
76.1425 19.0
76.1629 20.0
76.1833 23.0
76.2038 16.0
76.2242 20.0
76.2446 19.0
76.265 23.0
76.2855 19.0
76.3059 24.0
76.3263 12.0
76.3468 18.0
76.3672 14.0
76.3876 15.0
76.4081 17.0
76.4285 19.0
76.4489 16.0
76.4694 18.0
76.4898 17.0
76.5102 14.0
76.5307 11.0
76.5511 27.0
76.5715 16.0
76.592 17.0
76.6124 20.0
76.6328 19.0
76.6533 24.0
76.6737 20.0
76.6941 17.0
76.7146 31.0
76.735 22.0
76.7554 25.0
76.7759 30.0
76.7963 20.0
76.8167 21.0
76.8372 20.0
76.8576 15.0
76.878 22.0
76.8985 23.0
76.9189 26.0
76.9393 22.0
76.9598 27.0
76.9802 26.0
77.0006 25.0
77.0211 22.0
77.0415 26.0
77.0619 29.0
77.0824 28.0
77.1028 26.0
77.1232 25.0
77.1437 23.0
77.1641 20.0
77.1845 20.0
77.2049 19.0
77.2254 25.0
77.2458 20.0
77.2662 22.0
77.2867 19.0
77.3071 25.0
77.3275 22.0
77.348 23.0
77.3684 12.0
77.3888 23.0
77.4093 21.0
77.4297 24.0
77.4501 25.0
77.4706 20.0
77.491 30.0
77.5114 15.0
77.5319 26.0
77.5523 12.0
77.5727 26.0
77.5932 22.0
77.6136 25.0
77.634 31.0
77.6545 30.0
77.6749 27.0
77.6953 27.0
77.7158 26.0
77.7362 25.0
77.7566 26.0
77.7771 29.0
77.7975 32.0
77.8179 30.0
77.8384 21.0
77.8588 33.0
77.8792 20.0
77.8997 16.0
77.9201 34.0
77.9405 32.0
77.961 34.0
77.9814 23.0
78.0018 38.0
78.0223 30.0
78.0427 34.0
78.0631 27.0
78.0835 32.0
78.104 30.0
78.1244 44.0
78.1448 45.0
78.1653 43.0
78.1857 61.0
78.2061 75.0
78.2266 57.0
78.247 60.0
78.2674 67.0
78.2879 54.0
78.3083 64.0
78.3287 56.0
78.3492 48.0
78.3696 63.0
78.39 56.0
78.4105 43.0
78.4309 42.0
78.4513 48.0
78.4718 51.0
78.4922 54.0
78.5126 46.0
78.5331 72.0
78.5535 56.0
78.5739 72.0
78.5944 59.0
78.6148 64.0
78.6352 59.0
78.6557 40.0
78.6761 49.0
78.6965 36.0
78.717 28.0
78.7374 41.0
78.7578 37.0
78.7783 44.0
78.7987 35.0
78.8191 45.0
78.8396 61.0
78.86 48.0
78.8804 60.0
78.9009 62.0
78.9213 67.0
78.9417 56.0
78.9622 67.0
78.9826 42.0
79.003 51.0
79.0234 35.0
79.0439 37.0
79.0643 35.0
79.0847 38.0
79.1052 32.0
79.1256 32.0
79.146 29.0
79.1665 37.0
79.1869 43.0
79.2073 34.0
79.2278 33.0
79.2482 25.0
79.2686 28.0
79.2891 23.0
79.3095 25.0
79.3299 14.0
79.3504 21.0
79.3708 23.0
79.3912 39.0
79.4117 30.0
79.4321 26.0
79.4525 18.0
79.473 23.0
79.4934 18.0
79.5138 18.0
79.5343 25.0
79.5547 11.0
79.5751 22.0
79.5956 26.0
79.616 23.0
79.6364 21.0
79.6569 25.0
79.6773 21.0
79.6977 13.0
79.7182 13.0
79.7386 17.0
79.759 17.0
79.7795 21.0
79.7999 21.0
79.8203 13.0
79.8408 20.0
79.8612 19.0
79.8816 20.0
79.9021 10.0
79.9225 22.0
79.9429 7.0
79.9633 9.0
79.9838 22.0
80.0042 18.0
80.0246 14.0
80.0451 10.0
80.0655 12.0
80.0859 14.0
80.1064 13.0
80.1268 8.0
80.1472 14.0
80.1677 13.0
80.1881 12.0
80.2085 14.0
80.229 15.0
80.2494 15.0
80.2698 12.0
80.2903 18.0
80.3107 20.0
80.3311 21.0
80.3516 15.0
80.372 11.0
80.3924 12.0
80.4129 19.0
80.4333 11.0
80.4537 26.0
80.4742 19.0
80.4946 17.0
80.515 17.0
80.5355 24.0
80.5559 23.0
80.5763 33.0
80.5968 32.0
80.6172 30.0
80.6376 33.0
80.6581 41.0
80.6785 24.0
80.6989 28.0
80.7194 45.0
80.7398 38.0
80.7602 40.0
80.7807 29.0
80.8011 19.0
80.8215 32.0
80.8419 44.0
80.8624 41.0
80.8828 23.0
80.9032 37.0
80.9237 27.0
80.9441 31.0
80.9645 37.0
80.985 39.0
81.0054 24.0
81.0258 45.0
81.0463 33.0
81.0667 41.0
81.0871 28.0
81.1076 32.0
81.128 35.0
81.1484 31.0
81.1689 29.0
81.1893 35.0
81.2097 19.0
81.2302 29.0
81.2506 27.0
81.271 22.0
81.2915 23.0
81.3119 22.0
81.3323 18.0
81.3528 25.0
81.3732 27.0
81.3936 13.0
81.4141 19.0
81.4345 12.0
81.4549 16.0
81.4754 11.0
81.4958 10.0
81.5162 12.0
81.5367 16.0
81.5571 15.0
81.5775 19.0
81.598 11.0
81.6184 16.0
81.6388 18.0
81.6593 9.0
81.6797 16.0
81.7001 17.0
81.7206 28.0
81.741 18.0
81.7614 15.0
81.7818 20.0
81.8023 21.0
81.8227 14.0
81.8431 19.0
81.8636 13.0
81.884 21.0
81.9044 20.0
81.9249 14.0
81.9453 26.0
81.9657 23.0
81.9862 25.0
82.0066 23.0
82.027 19.0
82.0475 23.0
82.0679 18.0
82.0883 31.0
82.1088 30.0
82.1292 33.0
82.1496 32.0
82.1701 43.0
82.1905 39.0
82.2109 37.0
82.2314 40.0
82.2518 39.0
82.2722 38.0
82.2927 41.0
82.3131 30.0
82.3335 28.0
82.354 38.0
82.3744 39.0
82.3948 39.0
82.4153 35.0
82.4357 43.0
82.4561 32.0
82.4766 34.0
82.497 23.0
82.5174 32.0
82.5379 31.0
82.5583 24.0
82.5787 20.0
82.5992 28.0
82.6196 23.0
82.64 23.0
82.6604 20.0
82.6809 20.0
82.7013 12.0
82.7217 18.0
82.7422 18.0
82.7626 18.0
82.783 9.0
82.8035 18.0
82.8239 12.0
82.8443 19.0
82.8648 15.0
82.8852 20.0
82.9056 12.0
82.9261 20.0
82.9465 13.0
82.9669 14.0
82.9874 14.0
83.0078 29.0
83.0282 21.0
83.0487 23.0
83.0691 28.0
83.0895 38.0
83.11 32.0
83.1304 30.0
83.1508 30.0
83.1713 29.0
83.1917 25.0
83.2121 28.0
83.2326 23.0
83.253 19.0
83.2734 22.0
83.2939 20.0
83.3143 28.0
83.3347 26.0
83.3552 23.0
83.3756 34.0
83.396 22.0
83.4165 17.0
83.4369 18.0
83.4573 21.0
83.4778 17.0
83.4982 23.0
83.5186 20.0
83.5391 19.0
83.5595 31.0
83.5799 25.0
83.6003 30.0
83.6208 22.0
83.6412 23.0
83.6616 18.0
83.6821 27.0
83.7025 21.0
83.7229 13.0
83.7434 17.0
83.7638 30.0
83.7842 31.0
83.8047 15.0
83.8251 20.0
83.8455 31.0
83.866 15.0
83.8864 24.0
83.9068 21.0
83.9273 20.0
83.9477 15.0
83.9681 21.0
83.9886 13.0
84.009 12.0
84.0294 7.0
84.0499 20.0
84.0703 13.0
84.0907 16.0
84.1112 19.0
84.1316 19.0
84.152 17.0
84.1725 15.0
84.1929 23.0
84.2133 14.0
84.2338 21.0
84.2542 10.0
84.2746 21.0
84.2951 16.0
84.3155 12.0
84.3359 19.0
84.3564 15.0
84.3768 14.0
84.3972 24.0
84.4177 23.0
84.4381 20.0
84.4585 24.0
84.4789 21.0
84.4994 23.0
84.5198 14.0
84.5402 21.0
84.5607 23.0
84.5811 18.0
84.6015 20.0
84.622 20.0
84.6424 19.0
84.6628 12.0
84.6833 16.0
84.7037 17.0
84.7241 15.0
84.7446 17.0
84.765 23.0
84.7854 19.0
84.8059 12.0
84.8263 13.0
84.8467 9.0
84.8672 10.0
84.8876 10.0
84.908 14.0
84.9285 17.0
84.9489 14.0
84.9693 13.0
84.9898 9.0
85.0102 13.0
85.0306 2.0
85.0511 15.0
85.0715 10.0
85.0919 11.0
85.1124 17.0
85.1328 8.0
85.1532 11.0
85.1737 17.0
85.1941 16.0
85.2145 10.0
85.235 21.0
85.2554 8.0
85.2758 13.0
85.2963 13.0
85.3167 10.0
85.3371 11.0
85.3576 11.0
85.378 7.0
85.3984 8.0
85.4188 3.0
85.4393 12.0
85.4597 14.0
85.4801 14.0
85.5006 15.0
85.521 8.0
85.5414 14.0
85.5619 13.0
85.5823 11.0
85.6027 13.0
85.6232 8.0
85.6436 20.0
85.664 11.0
85.6845 13.0
85.7049 9.0
85.7253 15.0
85.7458 14.0
85.7662 14.0
85.7866 10.0
85.8071 6.0
85.8275 10.0
85.8479 16.0
85.8684 10.0
85.8888 13.0
85.9092 22.0
85.9297 13.0
85.9501 15.0
85.9705 18.0
85.991 19.0
86.0114 21.0
86.0318 29.0
86.0523 24.0
86.0727 16.0
86.0931 17.0
86.1136 19.0
86.134 19.0
86.1544 20.0
86.1749 14.0
86.1953 16.0
86.2157 18.0
86.2362 18.0
86.2566 12.0
86.277 15.0
86.2975 15.0
86.3179 20.0
86.3383 18.0
86.3587 19.0
86.3792 15.0
86.3996 14.0
86.42 12.0
86.4405 15.0
86.4609 10.0
86.4813 16.0
86.5018 12.0
86.5222 18.0
86.5426 18.0
86.5631 23.0
86.5835 16.0
86.6039 10.0
86.6244 18.0
86.6448 16.0
86.6652 19.0
86.6857 9.0
86.7061 17.0
86.7265 13.0
86.747 11.0
86.7674 9.0
86.7878 13.0
86.8083 11.0
86.8287 5.0
86.8491 9.0
86.8696 13.0
86.89 9.0
86.9104 10.0
86.9309 8.0
86.9513 13.0
86.9717 19.0
86.9922 12.0
87.0126 11.0
87.033 11.0
87.0535 20.0
87.0739 9.0
87.0943 11.0
87.1148 15.0
87.1352 14.0
87.1556 6.0
87.1761 18.0
87.1965 12.0
87.2169 13.0
87.2373 14.0
87.2578 15.0
87.2782 10.0
87.2986 16.0
87.3191 16.0
87.3395 15.0
87.3599 10.0
87.3804 17.0
87.4008 8.0
87.4212 4.0
87.4417 16.0
87.4621 15.0
87.4825 12.0
87.503 13.0
87.5234 9.0
87.5438 9.0
87.5643 19.0
87.5847 11.0
87.6051 7.0
87.6256 12.0
87.646 10.0
87.6664 12.0
87.6869 13.0
87.7073 11.0
87.7277 16.0
87.7482 15.0
87.7686 12.0
87.789 14.0
87.8095 15.0
87.8299 14.0
87.8503 22.0
87.8708 10.0
87.8912 12.0
87.9116 11.0
87.9321 13.0
87.9525 10.0
87.9729 17.0
87.9934 12.0
88.0138 18.0
88.0342 16.0
88.0547 11.0
88.0751 13.0
88.0955 14.0
88.116 19.0
88.1364 15.0
88.1568 17.0
88.1772 11.0
88.1977 16.0
88.2181 15.0
88.2385 20.0
88.259 13.0
88.2794 8.0
88.2998 18.0
88.3203 21.0
88.3407 17.0
88.3611 15.0
88.3816 9.0
88.402 15.0
88.4224 12.0
88.4429 8.0
88.4633 8.0
88.4837 18.0
88.5042 14.0
88.5246 13.0
88.545 6.0
88.5655 14.0
88.5859 14.0
88.6063 10.0
88.6268 16.0
88.6472 18.0
88.6676 14.0
88.6881 9.0
88.7085 15.0
88.7289 15.0
88.7494 7.0
88.7698 11.0
88.7902 9.0
88.8107 11.0
88.8311 16.0
88.8515 20.0
88.872 9.0
88.8924 8.0
88.9128 8.0
88.9333 9.0
88.9537 14.0
88.9741 13.0
88.9946 6.0
89.015 7.0
89.0354 12.0
89.0558 11.0
89.0763 8.0
89.0967 11.0
89.1171 9.0
89.1376 17.0
89.158 8.0
89.1784 11.0
89.1989 14.0
89.2193 12.0
89.2397 4.0
89.2602 11.0
89.2806 14.0
89.301 15.0
89.3215 12.0
89.3419 16.0
89.3623 18.0
89.3828 13.0
89.4032 12.0
89.4236 16.0
89.4441 13.0
89.4645 12.0
89.4849 11.0
89.5054 8.0
89.5258 11.0
89.5462 8.0
89.5667 13.0
89.5871 11.0
89.6075 9.0
89.628 11.0
89.6484 10.0
89.6688 14.0
89.6893 15.0
89.7097 12.0
89.7301 10.0
89.7506 7.0
89.771 12.0
89.7914 10.0
89.8119 12.0
89.8323 14.0
89.8527 13.0
89.8732 9.0
89.8936 9.0
89.914 14.0
89.9345 8.0
89.9549 11.0
89.9753 20.0
89.9957 23.0
90.0162 8.0
90.0366 14.0
90.057 13.0
90.0775 12.0
90.0979 17.0
