9.9 74.0
9.9204 74.0
9.9409 71.0
9.9613 64.0
9.9817 73.0
10.0022 84.0
10.0226 60.0
10.043 77.0
10.0635 79.0
10.0839 75.0
10.1043 57.0
10.1248 77.0
10.1452 65.0
10.1656 81.0
10.1861 74.0
10.2065 73.0
10.2269 79.0
10.2474 71.0
10.2678 75.0
10.2882 63.0
10.3087 68.0
10.3291 63.0
10.3495 82.0
10.3699 72.0
10.3904 69.0
10.4108 68.0
10.4312 63.0
10.4517 59.0
10.4721 60.0
10.4925 65.0
10.513 65.0
10.5334 60.0
10.5538 63.0
10.5743 63.0
10.5947 64.0
10.6151 61.0
10.6356 72.0
10.656 52.0
10.6764 75.0
10.6969 82.0
10.7173 64.0
10.7377 72.0
10.7582 60.0
10.7786 62.0
10.799 68.0
10.8195 76.0
10.8399 55.0
10.8603 69.0
10.8808 63.0
10.9012 59.0
10.9216 61.0
10.9421 76.0
10.9625 60.0
10.9829 66.0
11.0034 61.0
11.0238 59.0
11.0442 65.0
11.0647 70.0
11.0851 67.0
11.1055 74.0
11.126 61.0
11.1464 70.0
11.1668 66.0
11.1873 62.0
11.2077 46.0
11.2281 51.0
11.2486 49.0
11.269 43.0
11.2894 50.0
11.3098 58.0
11.3303 62.0
11.3507 73.0
11.3711 59.0
11.3916 53.0
11.412 55.0
11.4324 48.0
11.4529 50.0
11.4733 44.0
11.4937 64.0
11.5142 54.0
11.5346 51.0
11.555 58.0
11.5755 60.0
11.5959 66.0
11.6163 55.0
11.6368 50.0
11.6572 56.0
11.6776 64.0
11.6981 57.0
11.7185 59.0
11.7389 65.0
11.7594 70.0
11.7798 54.0
11.8002 66.0
11.8207 62.0
11.8411 54.0
11.8615 58.0
11.882 65.0
11.9024 50.0
11.9228 47.0
11.9433 57.0
11.9637 62.0
11.9841 58.0
12.0046 33.0
12.025 59.0
12.0454 53.0
12.0659 60.0
12.0863 51.0
12.1067 59.0
12.1272 66.0
12.1476 53.0
12.168 47.0
12.1884 64.0
12.2089 55.0
12.2293 52.0
12.2497 57.0
12.2702 53.0
12.2906 40.0
12.311 56.0
12.3315 40.0
12.3519 58.0
12.3723 50.0
12.3928 54.0
12.4132 53.0
12.4336 55.0
12.4541 51.0
12.4745 54.0
12.4949 48.0
12.5154 41.0
12.5358 60.0
12.5562 53.0
12.5767 57.0
12.5971 52.0
12.6175 50.0
12.638 44.0
12.6584 52.0
12.6788 51.0
12.6993 57.0
12.7197 48.0
12.7401 42.0
12.7606 46.0
12.781 51.0
12.8014 53.0
12.8219 49.0
12.8423 40.0
12.8627 47.0
12.8832 48.0
12.9036 59.0
12.924 46.0
12.9445 45.0
12.9649 57.0
12.9853 47.0
13.0058 52.0
13.0262 52.0
13.0466 50.0
13.0671 53.0
13.0875 53.0
13.1079 58.0
13.1283 53.0
13.1488 42.0
13.1692 37.0
13.1896 38.0
13.2101 35.0
13.2305 38.0
13.2509 37.0
13.2714 54.0
13.2918 45.0
13.3122 42.0
13.3327 42.0
13.3531 59.0
13.3735 46.0
13.394 47.0
13.4144 45.0
13.4348 48.0
13.4553 42.0
13.4757 42.0
13.4961 36.0
13.5166 55.0
13.537 37.0
13.5574 52.0
13.5779 42.0
13.5983 45.0
13.6187 57.0
13.6392 55.0
13.6596 40.0
13.68 42.0
13.7005 52.0
13.7209 53.0
13.7413 47.0
13.7618 45.0
13.7822 53.0
13.8026 37.0
13.8231 44.0
13.8435 36.0
13.8639 44.0
13.8844 52.0
13.9048 38.0
13.9252 44.0
13.9457 45.0
13.9661 33.0
13.9865 46.0
14.007 32.0
14.0274 39.0
14.0478 44.0
14.0682 39.0
14.0887 42.0
14.1091 41.0
14.1295 48.0
14.15 32.0
14.1704 39.0
14.1908 43.0
14.2113 41.0
14.2317 44.0
14.2521 40.0
14.2726 34.0
14.293 39.0
14.3134 43.0
14.3339 33.0
14.3543 50.0
14.3747 53.0
14.3952 43.0
14.4156 44.0
14.436 41.0
14.4565 40.0
14.4769 31.0
14.4973 35.0
14.5178 47.0
14.5382 27.0
14.5586 40.0
14.5791 54.0
14.5995 39.0
14.6199 36.0
14.6404 38.0
14.6608 42.0
14.6812 41.0
14.7017 46.0
14.7221 51.0
14.7425 38.0
14.763 35.0
14.7834 30.0
14.8038 32.0
14.8243 49.0
14.8447 33.0
14.8651 37.0
14.8856 39.0
14.906 41.0
14.9264 47.0
14.9468 34.0
14.9673 32.0
14.9877 37.0
15.0081 47.0
15.0286 36.0
15.049 40.0
15.0694 27.0
15.0899 41.0
15.1103 35.0
15.1307 33.0
15.1512 44.0
15.1716 32.0
15.192 28.0
15.2125 26.0
15.2329 25.0
15.2533 27.0
15.2738 46.0
15.2942 42.0
15.3146 35.0
15.3351 41.0
15.3555 37.0
15.3759 39.0
15.3964 33.0
15.4168 31.0
15.4372 36.0
15.4577 26.0
15.4781 32.0
15.4985 33.0
15.519 33.0
15.5394 31.0
15.5598 22.0
15.5803 44.0
15.6007 36.0
15.6211 32.0
15.6416 44.0
15.662 43.0
15.6824 40.0
15.7029 28.0
15.7233 33.0
15.7437 37.0
15.7642 32.0
15.7846 37.0
15.805 37.0
15.8255 34.0
15.8459 32.0
15.8663 39.0
15.8867 36.0
15.9072 31.0
15.9276 29.0
15.948 24.0
15.9685 26.0
15.9889 35.0
16.0093 30.0
16.0298 31.0
16.0502 37.0
16.0706 27.0
16.0911 28.0
16.1115 21.0
16.1319 27.0
16.1524 35.0
16.1728 44.0
16.1932 40.0
16.2137 33.0
16.2341 30.0
16.2545 33.0
16.275 24.0
16.2954 37.0
16.3158 26.0
16.3363 31.0
16.3567 27.0
16.3771 22.0
16.3976 38.0
16.418 21.0
16.4384 25.0
16.4589 38.0
16.4793 27.0
16.4997 32.0
16.5202 24.0
16.5406 30.0
16.561 32.0
16.5815 38.0
16.6019 30.0
16.6223 20.0
16.6428 41.0
16.6632 36.0
16.6836 32.0
16.7041 32.0
16.7245 25.0
16.7449 27.0
16.7653 39.0
16.7858 32.0
16.8062 37.0
16.8266 39.0
16.8471 32.0
16.8675 34.0
16.8879 33.0
16.9084 37.0
16.9288 30.0
16.9492 30.0
16.9697 29.0
16.9901 25.0
17.0105 40.0
17.031 23.0
17.0514 32.0
17.0718 34.0
17.0923 43.0
17.1127 26.0
17.1331 29.0
17.1536 40.0
17.174 29.0
17.1944 40.0
17.2149 34.0
17.2353 38.0
17.2557 30.0
17.2762 29.0
17.2966 33.0
17.317 33.0
17.3375 37.0
17.3579 24.0
17.3783 41.0
17.3988 43.0
17.4192 27.0
17.4396 25.0
17.4601 39.0
17.4805 20.0
17.5009 36.0
17.5214 44.0
17.5418 52.0
17.5622 32.0
17.5827 50.0
17.6031 47.0
17.6235 63.0
17.644 64.0
17.6644 71.0
17.6848 77.0
17.7052 60.0
17.7257 79.0
17.7461 73.0
17.7665 46.0
17.787 49.0
17.8074 51.0
17.8278 36.0
17.8483 50.0
17.8687 45.0
17.8891 28.0
17.9096 36.0
17.93 29.0
17.9504 35.0
17.9709 32.0
17.9913 25.0
18.0117 29.0
18.0322 25.0
18.0526 31.0
18.073 39.0
18.0935 40.0
18.1139 30.0
18.1343 38.0
18.1548 34.0
18.1752 32.0
18.1956 57.0
18.2161 43.0
18.2365 25.0
18.2569 38.0
18.2774 30.0
18.2978 28.0
18.3182 32.0
18.3387 28.0
18.3591 26.0
18.3795 34.0
18.4 25.0
18.4204 34.0
18.4408 35.0
18.4613 29.0
18.4817 34.0
18.5021 24.0
18.5226 25.0
18.543 28.0
18.5634 23.0
18.5839 25.0
18.6043 26.0
18.6247 27.0
18.6451 31.0
18.6656 40.0
18.686 31.0
18.7064 36.0
18.7269 28.0
18.7473 22.0
18.7677 33.0
18.7882 26.0
18.8086 29.0
18.829 33.0
18.8495 35.0
18.8699 33.0
18.8903 25.0
18.9108 25.0
18.9312 26.0
18.9516 22.0
18.9721 28.0
18.9925 28.0
19.0129 29.0
19.0334 28.0
19.0538 22.0
19.0742 25.0
19.0947 35.0
19.1151 36.0
19.1355 28.0
19.156 31.0
19.1764 34.0
19.1968 27.0
19.2173 21.0
19.2377 24.0
19.2581 27.0
19.2786 29.0
19.299 29.0
19.3194 29.0
19.3399 23.0
19.3603 20.0
19.3807 29.0
19.4012 23.0
19.4216 29.0
19.442 21.0
19.4625 18.0
19.4829 20.0
19.5033 24.0
19.5237 31.0
19.5442 17.0
19.5646 19.0
19.585 24.0
19.6055 23.0
19.6259 19.0
19.6463 29.0
19.6668 25.0
19.6872 30.0
19.7076 36.0
19.7281 19.0
19.7485 40.0
19.7689 27.0
19.7894 36.0
19.8098 26.0
19.8302 32.0
19.8507 29.0
19.8711 34.0
19.8915 33.0
19.912 27.0
19.9324 29.0
19.9528 26.0
19.9733 26.0
19.9937 29.0
20.0141 33.0
20.0346 28.0
20.055 28.0
20.0754 20.0
20.0959 34.0
20.1163 28.0
20.1367 24.0
20.1572 32.0
20.1776 32.0
20.198 34.0
20.2185 30.0
20.2389 23.0
20.2593 30.0
20.2798 29.0
20.3002 46.0
20.3206 24.0
20.3411 33.0
20.3615 31.0
20.3819 32.0
20.4024 32.0
20.4228 45.0
20.4432 39.0
20.4636 34.0
20.4841 72.0
20.5045 53.0
20.5249 93.0
20.5454 97.0
20.5658 123.0
20.5862 159.0
20.6067 196.0
20.6271 189.0
20.6475 193.0
20.668 163.0
20.6884 138.0
20.7088 105.0
20.7293 85.0
20.7497 84.0
20.7701 66.0
20.7906 55.0
20.811 53.0
20.8314 41.0
20.8519 36.0
20.8723 46.0
20.8927 35.0
20.9132 26.0
20.9336 27.0
20.954 27.0
20.9745 22.0
20.9949 24.0
21.0153 34.0
21.0358 33.0
21.0562 32.0
21.0766 24.0
21.0971 33.0
21.1175 25.0
21.1379 27.0
21.1584 35.0
21.1788 31.0
21.1992 30.0
21.2197 32.0
21.2401 40.0
21.2605 35.0
21.281 18.0
21.3014 20.0
21.3218 35.0
21.3422 30.0
21.3627 32.0
21.3831 26.0
21.4035 29.0
21.424 36.0
21.4444 36.0
21.4648 33.0
21.4853 31.0
21.5057 40.0
21.5261 36.0
21.5466 37.0
21.567 41.0
21.5874 46.0
21.6079 38.0
21.6283 24.0
21.6487 40.0
21.6692 27.0
21.6896 27.0
21.71 38.0
21.7305 32.0
21.7509 39.0
21.7713 35.0
21.7918 34.0
21.8122 32.0
21.8326 44.0
21.8531 31.0
21.8735 37.0
21.8939 29.0
21.9144 29.0
21.9348 28.0
21.9552 32.0
21.9757 31.0
21.9961 21.0
22.0165 21.0
22.037 28.0
22.0574 25.0
22.0778 28.0
22.0983 33.0
22.1187 39.0
22.1391 32.0
22.1596 30.0
22.18 32.0
22.2004 39.0
22.2209 29.0
22.2413 21.0
22.2617 11.0
22.2821 23.0
22.3026 24.0
22.323 26.0
22.3434 26.0
22.3639 31.0
22.3843 28.0
22.4047 28.0
22.4252 34.0
22.4456 22.0
22.466 18.0
22.4865 19.0
22.5069 31.0
22.5273 22.0
22.5478 19.0
22.5682 17.0
22.5886 29.0
22.6091 27.0
22.6295 17.0
22.6499 24.0
22.6704 20.0
22.6908 30.0
22.7112 27.0
22.7317 24.0
22.7521 18.0
22.7725 18.0
22.793 15.0
22.8134 20.0
22.8338 20.0
22.8543 24.0
22.8747 19.0
22.8951 23.0
22.9156 22.0
22.936 15.0
22.9564 34.0
22.9769 29.0
22.9973 37.0
23.0177 22.0
23.0382 28.0
23.0586 18.0
23.079 23.0
23.0995 21.0
23.1199 21.0
23.1403 25.0
23.1608 21.0
23.1812 29.0
23.2016 20.0
23.222 29.0
23.2425 26.0
23.2629 20.0
23.2833 31.0
23.3038 28.0
23.3242 33.0
23.3446 26.0
23.3651 21.0
23.3855 19.0
23.4059 27.0
23.4264 22.0
23.4468 31.0
23.4672 26.0
23.4877 27.0
23.5081 20.0
23.5285 30.0
23.549 15.0
23.5694 28.0
23.5898 30.0
23.6103 24.0
23.6307 24.0
23.6511 39.0
23.6716 27.0
23.692 18.0
23.7124 26.0
23.7329 30.0
23.7533 27.0
23.7737 30.0
23.7942 42.0
23.8146 29.0
23.835 25.0
23.8555 29.0
23.8759 31.0
23.8963 28.0
23.9168 38.0
23.9372 25.0
23.9576 29.0
23.9781 31.0
23.9985 28.0
24.0189 31.0
24.0394 29.0
24.0598 32.0
24.0802 38.0
24.1006 49.0
24.1211 60.0
24.1415 63.0
24.1619 73.0
24.1824 92.0
24.2028 86.0
24.2232 122.0
24.2437 134.0
24.2641 156.0
24.2845 173.0
24.305 150.0
24.3254 137.0
24.3458 145.0
24.3663 134.0
24.3867 100.0
24.4071 106.0
24.4276 63.0
24.448 75.0
24.4684 79.0
24.4889 74.0
24.5093 70.0
24.5297 72.0
24.5502 63.0
24.5706 61.0
24.591 95.0
24.6115 83.0
24.6319 107.0
24.6523 117.0
24.6728 115.0
24.6932 138.0
24.7136 125.0
24.7341 96.0
24.7545 102.0
24.7749 96.0
24.7954 89.0
24.8158 80.0
24.8362 66.0
24.8567 43.0
24.8771 60.0
24.8975 36.0
24.918 46.0
24.9384 39.0
24.9588 41.0
24.9793 45.0
24.9997 48.0
25.0201 21.0
25.0405 33.0
25.061 33.0
25.0814 22.0
25.1018 32.0
25.1223 31.0
25.1427 27.0
25.1631 34.0
25.1836 25.0
25.204 14.0
25.2244 23.0
25.2449 20.0
25.2653 19.0
25.2857 27.0
25.3062 21.0
25.3266 30.0
25.347 28.0
25.3675 23.0
25.3879 17.0
25.4083 23.0
25.4288 23.0
25.4492 21.0
25.4696 30.0
25.4901 33.0
25.5105 25.0
25.5309 20.0
25.5514 22.0
25.5718 17.0
25.5922 17.0
25.6127 23.0
25.6331 27.0
25.6535 16.0
25.674 20.0
25.6944 23.0
25.7148 24.0
25.7353 14.0
25.7557 21.0
25.7761 17.0
25.7966 14.0
25.817 24.0
25.8374 17.0
25.8579 14.0
25.8783 22.0
25.8987 14.0
25.9191 20.0
25.9396 25.0
25.96 24.0
25.9804 16.0
26.0009 22.0
26.0213 16.0
26.0417 17.0
26.0622 20.0
26.0826 22.0
26.103 25.0
26.1235 15.0
26.1439 9.0
26.1643 23.0
26.1848 14.0
26.2052 10.0
26.2256 19.0
26.2461 12.0
26.2665 15.0
26.2869 13.0
26.3074 21.0
26.3278 24.0
26.3482 18.0
26.3687 17.0
26.3891 21.0
26.4095 19.0
26.43 17.0
26.4504 20.0
26.4708 13.0
26.4913 16.0
26.5117 13.0
26.5321 18.0
26.5526 20.0
26.573 14.0
26.5934 22.0
26.6139 15.0
26.6343 27.0
26.6547 15.0
26.6752 19.0
26.6956 22.0
26.716 12.0
26.7365 19.0
26.7569 26.0
26.7773 17.0
26.7978 21.0
26.8182 14.0
26.8386 19.0
26.859 13.0
26.8795 22.0
26.8999 25.0
26.9203 26.0
26.9408 20.0
26.9612 20.0
26.9816 26.0
27.0021 30.0
27.0225 18.0
27.0429 31.0
27.0634 25.0
27.0838 27.0
27.1042 29.0
27.1247 36.0
27.1451 41.0
27.1655 40.0
27.186 46.0
27.2064 44.0
27.2268 42.0
27.2473 48.0
27.2677 37.0
27.2881 37.0
27.3086 46.0
27.329 41.0
27.3494 23.0
27.3699 35.0
27.3903 29.0
27.4107 31.0
27.4312 32.0
27.4516 35.0
27.472 27.0
27.4925 35.0
27.5129 27.0
27.5333 39.0
27.5538 37.0
27.5742 25.0
27.5946 19.0
27.6151 37.0
27.6355 23.0
27.6559 25.0
27.6764 36.0
27.6968 31.0
27.7172 26.0
27.7377 31.0
27.7581 31.0
27.7785 36.0
27.7989 36.0
27.8194 49.0
27.8398 42.0
27.8602 31.0
27.8807 49.0
27.9011 47.0
27.9215 46.0
27.942 50.0
27.9624 63.0
27.9828 46.0
28.0033 50.0
28.0237 68.0
28.0441 64.0
28.0646 53.0
28.085 79.0
28.1054 81.0
28.1259 84.0
28.1463 111.0
28.1667 105.0
28.1872 131.0
28.2076 159.0
28.228 189.0
28.2485 205.0
28.2689 237.0
28.2893 342.0
28.3098 377.0
28.3302 484.0
28.3506 679.0
28.3711 777.0
28.3915 872.0
28.4119 947.0
28.4324 943.0
28.4528 879.0
28.4732 759.0
28.4937 691.0
28.5141 573.0
28.5345 509.0
28.555 404.0
28.5754 326.0
28.5958 289.0
28.6163 238.0
28.6367 181.0
28.6571 195.0
28.6775 155.0
28.698 147.0
28.7184 112.0
28.7388 137.0
28.7593 113.0
28.7797 79.0
28.8001 82.0
28.8206 71.0
28.841 80.0
28.8614 78.0
28.8819 73.0
28.9023 55.0
28.9227 63.0
28.9432 50.0
28.9636 52.0
28.984 58.0
29.0045 57.0
29.0249 59.0
29.0453 49.0
29.0658 51.0
29.0862 41.0
29.1066 33.0
29.1271 45.0
29.1475 41.0
29.1679 36.0
29.1884 33.0
29.2088 33.0
29.2292 28.0
29.2497 44.0
29.2701 38.0
29.2905 37.0
29.311 28.0
29.3314 36.0
29.3518 30.0
29.3723 33.0
29.3927 32.0
29.4131 37.0
29.4336 40.0
29.454 26.0
29.4744 35.0
29.4949 39.0
29.5153 34.0
29.5357 29.0
29.5562 32.0
29.5766 31.0
29.597 28.0
29.6174 28.0
29.6379 39.0
29.6583 33.0
29.6787 43.0
29.6992 35.0
29.7196 20.0
29.74 35.0
29.7605 25.0
29.7809 26.0
29.8013 27.0
29.8218 26.0
29.8422 25.0
29.8626 28.0
29.8831 25.0
29.9035 38.0
29.9239 25.0
29.9444 46.0
29.9648 46.0
29.9852 31.0
30.0057 29.0
30.0261 31.0
30.0465 33.0
30.067 39.0
30.0874 36.0
30.1078 42.0
30.1283 28.0
30.1487 26.0
30.1691 39.0
30.1896 41.0
30.21 47.0
30.2304 38.0
30.2509 42.0
30.2713 33.0
30.2917 49.0
30.3122 58.0
30.3326 50.0
30.353 45.0
30.3735 53.0
30.3939 49.0
30.4143 53.0
30.4348 53.0
30.4552 57.0
30.4756 49.0
30.496 30.0
30.5165 52.0
30.5369 35.0
30.5573 49.0
30.5778 51.0
30.5982 49.0
30.6186 42.0
30.6391 37.0
30.6595 36.0
30.6799 41.0
30.7004 50.0
30.7208 44.0
30.7412 49.0
30.7617 38.0
30.7821 44.0
30.8025 56.0
30.823 43.0
30.8434 32.0
30.8638 41.0
30.8843 38.0
30.9047 37.0
30.9251 30.0
30.9456 41.0
30.966 52.0
30.9864 45.0
31.0069 52.0
31.0273 50.0
31.0477 40.0
31.0682 56.0
31.0886 50.0
31.109 52.0
31.1295 50.0
31.1499 38.0
31.1703 51.0
31.1908 48.0
31.2112 54.0
31.2316 53.0
31.2521 61.0
31.2725 78.0
31.2929 71.0
31.3134 71.0
31.3338 69.0
31.3542 85.0
31.3747 82.0
31.3951 91.0
31.4155 106.0
31.4359 121.0
31.4564 122.0
31.4768 152.0
31.4972 157.0
31.5177 187.0
31.5381 192.0
31.5585 251.0
31.579 287.0
31.5994 350.0
31.6198 465.0
31.6403 528.0
31.6607 591.0
31.6811 648.0
31.7016 689.0
31.722 676.0
31.7424 589.0
31.7629 576.0
31.7833 455.0
31.8037 405.0
31.8242 352.0
31.8446 297.0
31.865 245.0
31.8855 196.0
31.9059 164.0
31.9263 157.0
31.9468 121.0
31.9672 128.0
31.9876 102.0
32.0081 89.0
32.0285 102.0
32.0489 72.0
32.0694 52.0
32.0898 80.0
32.1102 68.0
32.1307 56.0
32.1511 57.0
32.1715 43.0
32.192 44.0
32.2124 53.0
32.2328 38.0
32.2533 41.0
32.2737 42.0
32.2941 47.0
32.3146 34.0
32.335 44.0
32.3554 42.0
32.3758 51.0
32.3963 44.0
32.4167 30.0
32.4371 43.0
32.4576 36.0
32.478 29.0
32.4984 48.0
32.5189 39.0
32.5393 63.0
32.5597 67.0
32.5802 63.0
32.6006 63.0
32.621 73.0
32.6415 81.0
32.6619 102.0
32.6823 109.0
32.7028 152.0
32.7232 123.0
32.7436 156.0
32.7641 111.0
32.7845 143.0
32.8049 143.0
32.8254 130.0
32.8458 97.0
32.8662 104.0
32.8867 87.0
32.9071 65.0
32.9275 71.0
32.948 61.0
32.9684 55.0
32.9888 51.0
33.0093 36.0
33.0297 49.0
33.0501 33.0
33.0706 35.0
33.091 28.0
33.1114 37.0
33.1319 38.0
33.1523 28.0
33.1727 36.0
33.1932 31.0
33.2136 18.0
33.234 30.0
33.2544 28.0
33.2749 27.0
33.2953 24.0
33.3157 19.0
33.3362 27.0
33.3566 29.0
33.377 30.0
33.3975 23.0
33.4179 46.0
33.4383 20.0
33.4588 27.0
33.4792 15.0
33.4996 18.0
33.5201 20.0
33.5405 22.0
33.5609 22.0
33.5814 18.0
33.6018 28.0
33.6222 21.0
33.6427 33.0
33.6631 29.0
33.6835 32.0
33.704 20.0
33.7244 28.0
33.7448 22.0
33.7653 27.0
33.7857 31.0
33.8061 25.0
33.8266 27.0
33.847 36.0
33.8674 38.0
33.8879 31.0
33.9083 32.0
33.9287 34.0
33.9492 31.0
33.9696 42.0
33.99 29.0
34.0105 43.0
34.0309 45.0
34.0513 39.0
34.0718 58.0
34.0922 33.0
34.1126 54.0
34.1331 62.0
34.1535 44.0
34.1739 70.0
34.1943 66.0
34.2148 81.0
34.2352 94.0
34.2556 100.0
34.2761 127.0
34.2965 170.0
34.3169 190.0
34.3374 201.0
34.3578 238.0
34.3782 209.0
34.3987 193.0
34.4191 219.0
34.4395 231.0
34.46 204.0
34.4804 176.0
34.5008 170.0
34.5213 162.0
34.5417 166.0
34.5621 141.0
34.5826 151.0
34.603 161.0
34.6234 166.0
34.6439 150.0
34.6643 165.0
34.6847 129.0
34.7052 129.0
34.7256 122.0
34.746 120.0
34.7665 88.0
34.7869 90.0
34.8073 73.0
34.8278 68.0
34.8482 64.0
34.8686 60.0
34.8891 72.0
34.9095 48.0
34.9299 41.0
34.9504 46.0
34.9708 42.0
34.9912 29.0
35.0117 40.0
35.0321 49.0
35.0525 42.0
35.0729 38.0
35.0934 40.0
35.1138 29.0
35.1342 29.0
35.1547 34.0
35.1751 38.0
35.1955 36.0
35.216 31.0
35.2364 51.0
35.2568 41.0
35.2773 50.0
35.2977 45.0
35.3181 62.0
35.3386 52.0
35.359 67.0
35.3794 66.0
35.3999 75.0
35.4203 90.0
35.4407 121.0
35.4612 150.0
35.4816 142.0
35.502 172.0
35.5225 147.0
35.5429 133.0
35.5633 133.0
35.5838 124.0
35.6042 145.0
35.6246 99.0
35.6451 124.0
35.6655 82.0
35.6859 79.0
35.7064 66.0
35.7268 53.0
35.7472 53.0
35.7677 65.0
35.7881 42.0
35.8085 65.0
35.829 47.0
35.8494 38.0
35.8698 38.0
35.8903 40.0
35.9107 66.0
35.9311 53.0
35.9516 60.0
35.972 48.0
35.9924 44.0
36.0128 59.0
36.0333 45.0
36.0537 46.0
36.0741 53.0
36.0946 56.0
36.115 51.0
36.1354 60.0
36.1559 37.0
36.1763 50.0
36.1967 34.0
36.2172 30.0
36.2376 43.0
36.258 35.0
36.2785 24.0
36.2989 29.0
36.3193 32.0
36.3398 25.0
36.3602 31.0
36.3806 24.0
36.4011 27.0
36.4215 27.0
36.4419 30.0
36.4624 16.0
36.4828 23.0
36.5032 20.0
36.5237 15.0
36.5441 21.0
36.5645 20.0
36.585 21.0
36.6054 20.0
36.6258 21.0
36.6463 18.0
36.6667 23.0
36.6871 11.0
36.7076 23.0
36.728 20.0
36.7484 26.0
36.7689 19.0
36.7893 23.0
36.8097 20.0
36.8302 19.0
36.8506 9.0
36.871 9.0
36.8915 16.0
36.9119 15.0
36.9323 18.0
36.9527 23.0
36.9732 16.0
36.9936 19.0
37.014 18.0
37.0345 20.0
37.0549 15.0
37.0753 18.0
37.0958 18.0
37.1162 15.0
37.1366 16.0
37.1571 19.0
37.1775 20.0
37.1979 24.0
37.2184 14.0
37.2388 21.0
37.2592 21.0
37.2797 15.0
37.3001 17.0
37.3205 26.0
37.341 14.0
37.3614 15.0
37.3818 16.0
37.4023 11.0
37.4227 24.0
37.4431 18.0
37.4636 16.0
37.484 18.0
37.5044 16.0
37.5249 14.0
37.5453 16.0
37.5657 16.0
37.5862 10.0
37.6066 21.0
37.627 14.0
37.6475 8.0
37.6679 18.0
37.6883 7.0
37.7088 13.0
37.7292 15.0
37.7496 13.0
37.7701 10.0
37.7905 11.0
37.8109 14.0
37.8313 10.0
37.8518 14.0
37.8722 17.0
37.8926 14.0
37.9131 11.0
37.9335 16.0
37.9539 23.0
37.9744 17.0
37.9948 13.0
38.0152 17.0
38.0357 14.0
38.0561 15.0
38.0765 15.0
38.097 15.0
38.1174 18.0
38.1378 16.0
38.1583 11.0
38.1787 21.0
38.1991 15.0
38.2196 11.0
38.24 12.0
38.2604 14.0
38.2809 13.0
38.3013 12.0
38.3217 19.0
38.3422 4.0
38.3626 10.0
38.383 18.0
38.4035 24.0
38.4239 18.0
38.4443 18.0
38.4648 12.0
38.4852 14.0
38.5056 22.0
38.5261 21.0
38.5465 21.0
38.5669 20.0
38.5874 26.0
38.6078 33.0
38.6282 36.0
38.6487 27.0
38.6691 40.0
38.6895 36.0
38.71 54.0
38.7304 38.0
38.7508 60.0
38.7712 77.0
38.7917 58.0
38.8121 60.0
38.8325 51.0
38.853 77.0
38.8734 62.0
38.8938 51.0
38.9143 49.0
38.9347 46.0
38.9551 36.0
38.9756 38.0
38.996 37.0
39.0164 29.0
39.0369 36.0
39.0573 16.0
39.0777 34.0
39.0982 23.0
39.1186 27.0
39.139 23.0
39.1595 19.0
39.1799 25.0
39.2003 10.0
39.2208 28.0
39.2412 20.0
39.2616 24.0
39.2821 19.0
39.3025 23.0
39.3229 12.0
39.3434 28.0
39.3638 13.0
39.3842 23.0
39.4047 17.0
39.4251 14.0
39.4455 28.0
39.466 19.0
39.4864 11.0
39.5068 19.0
39.5273 16.0
39.5477 21.0
39.5681 29.0
39.5886 24.0
39.609 29.0
39.6294 27.0
39.6498 21.0
39.6703 29.0
39.6907 20.0
39.7111 33.0
39.7316 20.0
39.752 22.0
39.7724 23.0
39.7929 23.0
39.8133 21.0
39.8337 13.0
39.8542 23.0
39.8746 13.0
39.895 21.0
39.9155 26.0
39.9359 22.0
39.9563 18.0
39.9768 17.0
39.9972 25.0
40.0176 23.0
40.0381 20.0
40.0585 20.0
40.0789 16.0
40.0994 21.0
40.1198 24.0
40.1402 20.0
40.1607 16.0
40.1811 30.0
40.2015 23.0
40.222 20.0
40.2424 13.0
40.2628 12.0
40.2833 12.0
40.3037 19.0
40.3241 22.0
40.3446 16.0
40.365 26.0
40.3854 20.0
40.4059 21.0
40.4263 17.0
40.4467 14.0
40.4672 24.0
40.4876 22.0
40.508 23.0
40.5285 23.0
40.5489 23.0
40.5693 26.0
40.5897 31.0
40.6102 29.0
40.6306 26.0
40.651 22.0
40.6715 21.0
40.6919 28.0
40.7123 34.0
40.7328 42.0
40.7532 43.0
40.7736 61.0
40.7941 61.0
40.8145 81.0
40.8349 81.0
40.8554 69.0
40.8758 88.0
40.8962 106.0
40.9167 110.0
40.9371 114.0
40.9575 114.0
40.978 133.0
40.9984 125.0
41.0188 109.0
41.0393 111.0
41.0597 93.0
41.0801 83.0
41.1006 84.0
41.121 78.0
41.1414 78.0
41.1619 64.0
41.1823 65.0
41.2027 57.0
41.2232 56.0
41.2436 64.0
41.264 55.0
41.2845 68.0
41.3049 56.0
41.3253 79.0
41.3458 72.0
41.3662 65.0
41.3866 85.0
41.4071 73.0
41.4275 80.0
41.4479 79.0
41.4684 66.0
41.4888 49.0
41.5092 58.0
41.5296 72.0
41.5501 85.0
41.5705 75.0
41.5909 92.0
41.6114 69.0
41.6318 70.0
41.6522 78.0
41.6727 63.0
41.6931 64.0
41.7135 56.0
41.734 58.0
41.7544 54.0
41.7748 40.0
41.7953 40.0
41.8157 33.0
41.8361 37.0
41.8566 26.0
41.877 23.0
41.8974 32.0
41.9179 25.0
41.9383 12.0
41.9587 24.0
41.9792 32.0
41.9996 25.0
42.02 18.0
42.0405 17.0
42.0609 15.0
42.0813 15.0
42.1018 22.0
42.1222 18.0
42.1426 10.0
42.1631 13.0
42.1835 13.0
42.2039 22.0
42.2244 19.0
42.2448 12.0
42.2652 9.0
42.2857 14.0
42.3061 17.0
42.3265 22.0
42.347 8.0
42.3674 15.0
42.3878 11.0
42.4082 10.0
42.4287 12.0
42.4491 13.0
42.4695 14.0
42.49 16.0
42.5104 14.0
42.5308 17.0
42.5513 10.0
42.5717 9.0
42.5921 4.0
42.6126 14.0
42.633 11.0
42.6534 18.0
42.6739 15.0
42.6943 14.0
42.7147 18.0
42.7352 15.0
42.7556 13.0
42.776 13.0
42.7965 20.0
42.8169 14.0
42.8373 13.0
42.8578 16.0
42.8782 12.0
42.8986 16.0
42.9191 18.0
42.9395 15.0
42.9599 9.0
42.9804 11.0
43.0008 19.0
43.0212 13.0
43.0417 10.0
43.0621 15.0
43.0825 13.0
43.103 21.0
43.1234 17.0
43.1438 14.0
43.1643 12.0
43.1847 17.0
43.2051 15.0
43.2256 13.0
43.246 16.0
43.2664 17.0
43.2869 19.0
43.3073 13.0
43.3277 17.0
43.3481 12.0
43.3686 14.0
43.389 16.0
43.4094 11.0
43.4299 16.0
43.4503 11.0
43.4707 16.0
43.4912 12.0
43.5116 18.0
43.532 16.0
43.5525 15.0
43.5729 16.0
43.5933 11.0
43.6138 16.0
43.6342 11.0
43.6546 10.0
43.6751 17.0
43.6955 17.0
43.7159 14.0
43.7364 14.0
43.7568 11.0
43.7772 8.0
43.7977 13.0
43.8181 19.0
43.8385 9.0
43.859 13.0
43.8794 13.0
43.8998 14.0
43.9203 10.0
43.9407 15.0
43.9611 17.0
43.9816 17.0
44.002 15.0
44.0224 17.0
44.0429 8.0
44.0633 18.0
44.0837 13.0
44.1042 15.0
44.1246 12.0
44.145 17.0
44.1655 13.0
44.1859 15.0
44.2063 7.0
44.2267 14.0
44.2472 15.0
44.2676 8.0
44.288 16.0
44.3085 11.0
44.3289 12.0
44.3493 13.0
44.3698 15.0
44.3902 12.0
44.4106 15.0
44.4311 11.0
44.4515 15.0
44.4719 18.0
44.4924 17.0
44.5128 22.0
44.5332 23.0
44.5537 15.0
44.5741 13.0
44.5945 16.0
44.615 14.0
44.6354 19.0
44.6558 18.0
44.6763 20.0
44.6967 17.0
44.7171 24.0
44.7376 21.0
44.758 19.0
44.7784 17.0
44.7989 28.0
44.8193 28.0
44.8397 31.0
44.8602 28.0
44.8806 28.0
44.901 35.0
44.9215 37.0
44.9419 50.0
44.9623 66.0
44.9828 57.0
45.0032 80.0
45.0236 80.0
45.0441 79.0
45.0645 70.0
45.0849 76.0
45.1054 60.0
45.1258 75.0
45.1462 68.0
45.1666 68.0
45.1871 48.0
45.2075 55.0
45.2279 47.0
45.2484 25.0
45.2688 36.0
45.2892 24.0
45.3097 21.0
45.3301 29.0
45.3505 20.0
45.371 18.0
45.3914 31.0
45.4118 28.0
45.4323 23.0
45.4527 26.0
45.4731 29.0
45.4936 22.0
45.514 24.0
45.5344 27.0
45.5549 35.0
45.5753 40.0
45.5957 31.0
45.6162 39.0
45.6366 53.0
45.657 44.0
45.6775 49.0
45.6979 60.0
45.7183 73.0
45.7388 62.0
45.7592 76.0
45.7796 63.0
45.8001 77.0
45.8205 51.0
45.8409 59.0
45.8614 55.0
45.8818 58.0
45.9022 42.0
45.9227 35.0
45.9431 44.0
45.9635 22.0
45.984 35.0
46.0044 34.0
46.0248 30.0
46.0453 27.0
46.0657 24.0
46.0861 25.0
46.1065 23.0
46.127 16.0
46.1474 29.0
46.1678 24.0
46.1883 19.0
46.2087 17.0
46.2291 20.0
46.2496 17.0
46.27 13.0
46.2904 14.0
46.3109 14.0
46.3313 10.0
46.3517 17.0
46.3722 19.0
46.3926 15.0
46.413 9.0
46.4335 15.0
46.4539 13.0
46.4743 24.0
46.4948 8.0
46.5152 20.0
46.5356 20.0
46.5561 9.0
46.5765 15.0
46.5969 11.0
46.6174 19.0
46.6378 16.0
46.6582 17.0
46.6787 15.0
46.6991 17.0
46.7195 12.0
46.74 11.0
46.7604 15.0
46.7808 14.0
46.8013 14.0
46.8217 17.0
46.8421 13.0
46.8626 14.0
46.883 17.0
46.9034 9.0
46.9239 18.0
46.9443 8.0
46.9647 18.0
46.9851 11.0
47.0056 18.0
47.026 16.0
47.0464 12.0
47.0669 13.0
47.0873 19.0
47.1077 15.0
47.1282 9.0
47.1486 17.0
47.169 16.0
47.1895 11.0
47.2099 18.0
47.2303 19.0
47.2508 13.0
47.2712 16.0
47.2916 32.0
47.3121 12.0
47.3325 15.0
47.3529 19.0
47.3734 15.0
47.3938 14.0
47.4142 24.0
47.4347 21.0
47.4551 17.0
47.4755 19.0
47.496 23.0
47.5164 17.0
47.5368 23.0
47.5573 9.0
47.5777 15.0
47.5981 15.0
47.6186 10.0
47.639 12.0
47.6594 17.0
47.6799 16.0
47.7003 19.0
47.7207 16.0
47.7412 15.0
47.7616 20.0
47.782 13.0
47.8025 15.0
47.8229 13.0
47.8433 17.0
47.8638 19.0
47.8842 25.0
47.9046 11.0
47.925 20.0
47.9455 16.0
47.9659 12.0
47.9863 11.0
48.0068 17.0
48.0272 21.0
48.0476 18.0
48.0681 23.0
48.0885 24.0
48.1089 20.0
48.1294 19.0
48.1498 20.0
48.1702 17.0
48.1907 15.0
48.2111 17.0
48.2315 19.0
48.252 22.0
48.2724 16.0
48.2928 20.0
48.3133 18.0
48.3337 18.0
48.3541 21.0
48.3746 24.0
48.395 19.0
48.4154 21.0
48.4359 26.0
48.4563 22.0
48.4767 22.0
48.4972 19.0
48.5176 22.0
48.538 22.0
48.5585 33.0
48.5789 31.0
48.5993 16.0
48.6198 26.0
48.6402 17.0
48.6606 16.0
48.6811 18.0
48.7015 22.0
48.7219 25.0
48.7424 19.0
48.7628 22.0
48.7832 26.0
48.8036 33.0
48.8241 32.0
48.8445 28.0
48.8649 20.0
48.8854 29.0
48.9058 22.0
48.9262 26.0
48.9467 38.0
48.9671 30.0
48.9875 31.0
49.008 35.0
49.0284 43.0
49.0488 39.0
49.0693 39.0
49.0897 51.0
49.1101 57.0
49.1306 58.0
49.151 63.0
49.1714 71.0
49.1919 65.0
49.2123 67.0
49.2327 69.0
49.2532 71.0
49.2736 85.0
49.294 95.0
49.3145 87.0
49.3349 105.0
49.3553 112.0
49.3758 138.0
49.3962 146.0
49.4166 181.0
49.4371 181.0
49.4575 202.0
49.4779 234.0
49.4984 194.0
49.5188 177.0
49.5392 175.0
49.5597 144.0
49.5801 169.0
49.6005 174.0
49.621 126.0
49.6414 115.0
49.6618 82.0
49.6823 112.0
49.7027 78.0
49.7231 75.0
49.7435 59.0
49.764 59.0
49.7844 60.0
49.8048 62.0
49.8253 42.0
49.8457 44.0
49.8661 48.0
49.8866 47.0
49.907 53.0
49.9274 55.0
49.9479 62.0
49.9683 51.0
49.9887 57.0
50.0092 45.0
50.0296 52.0
50.05 53.0
50.0705 55.0
50.0909 83.0
50.1113 89.0
50.1318 70.0
50.1522 71.0
50.1726 68.0
50.1931 118.0
50.2135 121.0
50.2339 142.0
50.2544 187.0
50.2748 211.0
50.2952 217.0
50.3157 251.0
50.3361 229.0
50.3565 253.0
50.377 222.0
50.3974 228.0
50.4178 205.0
50.4383 205.0
50.4587 202.0
50.4791 178.0
50.4996 161.0
50.52 138.0
50.5404 146.0
50.5609 120.0
50.5813 88.0
50.6017 95.0
50.6221 97.0
50.6426 109.0
50.663 98.0
50.6834 104.0
50.7039 100.0
50.7243 144.0
50.7447 134.0
50.7652 149.0
50.7856 142.0
50.806 129.0
50.8265 147.0
50.8469 134.0
50.8673 127.0
50.8878 101.0
50.9082 109.0
50.9286 108.0
50.9491 78.0
50.9695 87.0
50.9899 49.0
51.0104 62.0
51.0308 46.0
51.0512 57.0
51.0717 54.0
51.0921 45.0
51.1125 49.0
51.133 47.0
51.1534 44.0
51.1738 51.0
51.1943 42.0
51.2147 41.0
51.2351 49.0
51.2556 47.0
51.276 44.0
51.2964 53.0
51.3169 65.0
51.3373 50.0
51.3577 60.0
51.3782 72.0
51.3986 64.0
51.419 81.0
51.4395 67.0
51.4599 49.0
51.4803 56.0
51.5008 57.0
51.5212 66.0
51.5416 59.0
51.562 72.0
51.5825 52.0
51.6029 55.0
51.6233 55.0
51.6438 62.0
51.6642 48.0
51.6846 41.0
51.7051 31.0
51.7255 43.0
51.7459 31.0
51.7664 25.0
51.7868 38.0
51.8072 24.0
51.8277 24.0
51.8481 20.0
51.8685 23.0
51.889 22.0
51.9094 27.0
51.9298 26.0
51.9503 27.0
51.9707 18.0
51.9911 19.0
52.0116 14.0
52.032 22.0
52.0524 16.0
52.0729 17.0
52.0933 18.0
52.1137 15.0
52.1342 16.0
52.1546 17.0
52.175 12.0
52.1955 9.0
52.2159 21.0
52.2363 16.0
52.2568 16.0
52.2772 17.0
52.2976 14.0
52.3181 17.0
52.3385 19.0
52.3589 13.0
52.3794 17.0
52.3998 21.0
52.4202 12.0
52.4407 9.0
52.4611 17.0
52.4815 14.0
52.5019 18.0
52.5224 15.0
52.5428 20.0
52.5632 8.0
52.5837 20.0
52.6041 17.0
52.6245 16.0
52.645 11.0
52.6654 15.0
52.6858 17.0
52.7063 18.0
52.7267 19.0
52.7471 17.0
52.7676 13.0
52.788 12.0
52.8084 13.0
52.8289 10.0
52.8493 20.0
52.8697 12.0
52.8902 25.0
52.9106 17.0
52.931 11.0
52.9515 15.0
52.9719 14.0
52.9923 22.0
53.0128 12.0
53.0332 18.0
53.0536 18.0
53.0741 19.0
53.0945 17.0
53.1149 20.0
53.1354 19.0
53.1558 20.0
53.1762 21.0
53.1967 17.0
53.2171 15.0
53.2375 24.0
53.258 24.0
53.2784 14.0
53.2988 23.0
53.3193 17.0
53.3397 14.0
53.3601 12.0
53.3805 19.0
53.401 25.0
53.4214 21.0
53.4418 20.0
53.4623 23.0
53.4827 18.0
53.5031 13.0
53.5236 22.0
53.544 22.0
53.5644 13.0
53.5849 31.0
53.6053 25.0
53.6257 23.0
53.6462 23.0
53.6666 23.0
53.687 29.0
53.7075 15.0
53.7279 27.0
53.7483 25.0
53.7688 24.0
53.7892 22.0
53.8096 26.0
53.8301 16.0
53.8505 22.0
53.8709 30.0
53.8914 26.0
53.9118 37.0
53.9322 19.0
53.9527 36.0
53.9731 36.0
53.9935 36.0
54.014 29.0
54.0344 41.0
54.0548 52.0
54.0753 48.0
54.0957 53.0
54.1161 60.0
54.1366 76.0
54.157 54.0
54.1774 67.0
54.1979 81.0
54.2183 100.0
54.2387 115.0
54.2592 132.0
54.2796 105.0
54.3 133.0
54.3204 136.0
54.3409 112.0
54.3613 104.0
54.3817 90.0
54.4022 100.0
54.4226 91.0
54.443 77.0
54.4635 74.0
54.4839 70.0
54.5043 61.0
54.5248 71.0
54.5452 50.0
54.5656 38.0
54.5861 40.0
54.6065 43.0
54.6269 33.0
54.6474 39.0
54.6678 29.0
54.6882 25.0
54.7087 32.0
54.7291 28.0
54.7495 35.0
54.77 33.0
54.7904 27.0
54.8108 26.0
54.8313 32.0
54.8517 40.0
54.8721 31.0
54.8926 33.0
54.913 32.0
54.9334 37.0
54.9539 29.0
54.9743 27.0
54.9947 28.0
55.0152 34.0
55.0356 22.0
55.056 25.0
55.0765 41.0
55.0969 28.0
55.1173 24.0
55.1378 32.0
55.1582 38.0
55.1786 30.0
55.199 42.0
55.2195 40.0
55.2399 50.0
55.2603 41.0
55.2808 51.0
55.3012 42.0
55.3216 58.0
55.3421 56.0
55.3625 58.0
55.3829 65.0
55.4034 64.0
55.4238 89.0
55.4442 88.0
55.4647 106.0
55.4851 108.0
55.5055 116.0
55.526 148.0
55.5464 140.0
55.5668 130.0
55.5873 156.0
55.6077 142.0
55.6281 150.0
55.6486 115.0
55.669 123.0
55.6894 124.0
55.7099 146.0
55.7303 154.0
55.7507 117.0
55.7712 153.0
55.7916 123.0
55.812 129.0
55.8325 107.0
55.8529 111.0
55.8733 113.0
55.8938 110.0
55.9142 107.0
55.9346 121.0
55.9551 94.0
55.9755 128.0
55.9959 106.0
56.0164 82.0
56.0368 124.0
56.0572 115.0
56.0777 125.0
56.0981 116.0
56.1185 106.0
56.1389 121.0
56.1594 78.0
56.1798 109.0
56.2002 88.0
56.2207 80.0
56.2411 83.0
56.2615 84.0
56.282 72.0
56.3024 70.0
56.3228 70.0
56.3433 60.0
56.3637 45.0
56.3841 47.0
56.4046 45.0
56.425 33.0
56.4454 34.0
56.4659 37.0
56.4863 36.0
56.5067 37.0
56.5272 38.0
56.5476 27.0
56.568 34.0
56.5885 24.0
56.6089 31.0
56.6293 25.0
56.6498 31.0
56.6702 27.0
56.6906 20.0
56.7111 32.0
56.7315 26.0
56.7519 24.0
56.7724 20.0
56.7928 21.0
56.8132 33.0
56.8337 25.0
56.8541 29.0
56.8745 23.0
56.895 19.0
56.9154 32.0
56.9358 39.0
56.9563 29.0
56.9767 17.0
56.9971 31.0
57.0176 31.0
57.038 29.0
57.0584 30.0
57.0788 39.0
57.0993 36.0
57.1197 34.0
57.1401 37.0
57.1606 37.0
57.181 43.0
57.2014 36.0
57.2219 54.0
57.2423 65.0
57.2627 60.0
57.2832 62.0
57.3036 75.0
57.324 102.0
57.3445 102.0
57.3649 88.0
57.3853 80.0
57.4058 90.0
57.4262 65.0
57.4466 81.0
57.4671 85.0
57.4875 90.0
57.5079 70.0
57.5284 81.0
57.5488 66.0
57.5692 57.0
57.5897 44.0
57.6101 57.0
57.6305 43.0
57.651 42.0
57.6714 38.0
57.6918 34.0
57.7123 46.0
57.7327 44.0
57.7531 33.0
57.7736 36.0
57.794 26.0
57.8144 41.0
57.8349 34.0
57.8553 32.0
57.8757 24.0
57.8962 28.0
57.9166 39.0
57.937 41.0
57.9574 40.0
57.9779 48.0
57.9983 55.0
58.0187 67.0
58.0392 70.0
58.0596 73.0
58.08 68.0
58.1005 54.0
58.1209 51.0
58.1413 55.0
58.1618 62.0
58.1822 63.0
58.2026 51.0
58.2231 54.0
58.2435 60.0
58.2639 70.0
58.2844 42.0
58.3048 57.0
58.3252 49.0
58.3457 38.0
58.3661 49.0
58.3865 65.0
58.407 43.0
58.4274 45.0
58.4478 50.0
58.4683 62.0
58.4887 48.0
58.5091 51.0
58.5296 46.0
58.55 60.0
58.5704 42.0
58.5909 48.0
58.6113 37.0
58.6317 36.0
58.6522 43.0
58.6726 46.0
58.693 43.0
58.7135 39.0
58.7339 38.0
58.7543 43.0
58.7748 38.0
58.7952 24.0
58.8156 32.0
58.8361 23.0
58.8565 22.0
58.8769 34.0
58.8973 25.0
58.9178 26.0
58.9382 33.0
58.9586 21.0
58.9791 25.0
58.9995 21.0
59.0199 31.0
59.0404 26.0
59.0608 19.0
59.0812 23.0
59.1017 26.0
59.1221 26.0
59.1425 25.0
59.163 27.0
59.1834 24.0
59.2038 29.0
59.2243 14.0
59.2447 20.0
59.2651 22.0
59.2856 28.0
59.306 26.0
59.3264 27.0
59.3469 30.0
59.3673 38.0
59.3877 19.0
59.4082 21.0
59.4286 15.0
59.449 26.0
59.4695 23.0
59.4899 22.0
59.5103 26.0
59.5308 18.0
59.5512 23.0
59.5716 34.0
59.5921 33.0
59.6125 23.0
59.6329 32.0
59.6534 33.0
59.6738 36.0
59.6942 45.0
59.7147 36.0
59.7351 38.0
59.7555 42.0
59.7759 45.0
59.7964 45.0
59.8168 48.0
59.8372 61.0
59.8577 51.0
59.8781 60.0
59.8985 55.0
59.919 82.0
59.9394 79.0
59.9598 96.0
59.9803 105.0
60.0007 108.0
60.0211 97.0
60.0416 93.0
60.062 92.0
60.0824 114.0
60.1029 101.0
60.1233 102.0
60.1437 88.0
60.1642 108.0
60.1846 106.0
60.205 87.0
60.2255 100.0
60.2459 83.0
60.2663 91.0
60.2868 85.0
60.3072 98.0
60.3276 94.0
60.3481 93.0
60.3685 71.0
60.3889 83.0
60.4094 64.0
60.4298 65.0
60.4502 44.0
60.4707 53.0
60.4911 52.0
60.5115 51.0
60.532 35.0
60.5524 34.0
60.5728 28.0
60.5933 35.0
60.6137 28.0
60.6341 39.0
60.6546 32.0
60.675 26.0
60.6954 27.0
60.7158 37.0
60.7363 32.0
60.7567 30.0
60.7771 25.0
60.7976 34.0
60.818 22.0
60.8384 29.0
60.8589 23.0
60.8793 24.0
60.8997 36.0
60.9202 24.0
60.9406 21.0
60.961 14.0
60.9815 17.0
61.0019 23.0
61.0223 23.0
61.0428 30.0
61.0632 30.0
61.0836 22.0
61.1041 30.0
61.1245 30.0
61.1449 24.0
61.1654 15.0
61.1858 19.0
61.2062 28.0
61.2267 25.0
61.2471 24.0
61.2675 36.0
61.288 30.0
61.3084 29.0
61.3288 40.0
61.3493 33.0
61.3697 40.0
61.3901 35.0
61.4106 63.0
61.431 45.0
61.4514 63.0
61.4719 63.0
61.4923 54.0
61.5127 61.0
61.5332 72.0
61.5536 62.0
61.574 83.0
61.5945 54.0
61.6149 68.0
61.6353 58.0
61.6557 68.0
61.6762 64.0
61.6966 65.0
61.717 59.0
61.7375 49.0
61.7579 55.0
61.7783 53.0
61.7988 29.0
61.8192 41.0
61.8396 44.0
61.8601 35.0
61.8805 31.0
61.9009 46.0
61.9214 40.0
61.9418 44.0
61.9622 46.0
61.9827 53.0
62.0031 40.0
62.0235 48.0
62.044 53.0
62.0644 52.0
62.0848 62.0
62.1053 72.0
62.1257 66.0
62.1461 75.0
62.1666 75.0
62.187 88.0
62.2074 73.0
62.2279 64.0
62.2483 60.0
62.2687 61.0
62.2892 73.0
62.3096 68.0
62.33 56.0
62.3505 51.0
62.3709 69.0
62.3913 42.0
62.4118 69.0
62.4322 48.0
62.4526 32.0
62.4731 47.0
62.4935 30.0
62.5139 42.0
62.5343 34.0
62.5548 29.0
62.5752 44.0
62.5956 44.0
62.6161 33.0
62.6365 36.0
62.6569 34.0
62.6774 35.0
62.6978 32.0
62.7182 39.0
62.7387 43.0
62.7591 34.0
62.7795 44.0
62.8 45.0
62.8204 49.0
62.8408 54.0
62.8613 44.0
62.8817 67.0
62.9021 69.0
62.9226 65.0
62.943 71.0
62.9634 87.0
62.9839 101.0
63.0043 90.0
63.0247 109.0
63.0452 97.0
63.0656 99.0
63.086 96.0
63.1065 82.0
63.1269 68.0
63.1473 90.0
63.1678 54.0
63.1882 70.0
63.2086 80.0
63.2291 61.0
63.2495 56.0
63.2699 64.0
63.2904 48.0
63.3108 46.0
63.3312 44.0
63.3517 33.0
63.3721 36.0
63.3925 29.0
63.413 26.0
63.4334 24.0
63.4538 27.0
63.4742 24.0
63.4947 19.0
63.5151 26.0
63.5355 17.0
63.556 26.0
63.5764 19.0
63.5968 16.0
63.6173 17.0
63.6377 21.0
63.6581 18.0
63.6786 9.0
63.699 15.0
63.7194 12.0
63.7399 22.0
63.7603 16.0
63.7807 16.0
63.8012 14.0
63.8216 16.0
63.842 15.0
63.8625 17.0
63.8829 18.0
63.9033 18.0
63.9238 20.0
63.9442 20.0
63.9646 15.0
63.9851 18.0
64.0055 13.0
64.0259 16.0
64.0464 16.0
64.0668 27.0
64.0872 20.0
64.1077 22.0
64.1281 10.0
64.1485 23.0
64.169 17.0
64.1894 19.0
64.2098 28.0
64.2303 30.0
64.2507 34.0
64.2711 23.0
64.2916 32.0
64.312 30.0
64.3324 41.0
64.3528 31.0
64.3733 29.0
64.3937 41.0
64.4141 43.0
64.4346 40.0
64.455 38.0
64.4754 36.0
64.4959 40.0
64.5163 39.0
64.5367 33.0
64.5572 25.0
64.5776 45.0
64.598 29.0
64.6185 51.0
64.6389 38.0
64.6593 34.0
64.6798 22.0
64.7002 30.0
64.7206 24.0
64.7411 24.0
64.7615 25.0
64.7819 21.0
64.8024 22.0
64.8228 21.0
64.8432 16.0
64.8637 6.0
64.8841 17.0
64.9045 22.0
64.925 20.0
64.9454 20.0
64.9658 21.0
64.9863 17.0
65.0067 21.0
65.0271 15.0
65.0476 14.0
65.068 19.0
65.0884 22.0
65.1089 13.0
65.1293 20.0
65.1497 29.0
65.1702 27.0
65.1906 21.0
65.211 24.0
65.2315 18.0
65.2519 18.0
65.2723 23.0
65.2927 28.0
65.3132 20.0
65.3336 25.0
65.354 19.0
65.3745 30.0
65.3949 21.0
65.4153 35.0
65.4358 22.0
65.4562 33.0
65.4766 40.0
65.4971 36.0
65.5175 41.0
65.5379 37.0
65.5584 58.0
65.5788 45.0
65.5992 54.0
65.6197 47.0
65.6401 57.0
65.6605 46.0
65.681 44.0
65.7014 53.0
65.7218 55.0
65.7423 56.0
65.7627 64.0
65.7831 61.0
65.8036 63.0
65.824 60.0
65.8444 86.0
65.8649 78.0
65.8853 93.0
65.9057 73.0
65.9262 82.0
65.9466 78.0
65.967 56.0
65.9875 64.0
66.0079 58.0
66.0283 56.0
66.0488 68.0
66.0692 51.0
66.0896 58.0
66.1101 61.0
66.1305 46.0
66.1509 46.0
66.1714 40.0
66.1918 43.0
66.2122 37.0
66.2326 44.0
66.2531 25.0
66.2735 31.0
66.2939 18.0
66.3144 26.0
66.3348 29.0
66.3552 24.0
66.3757 18.0
66.3961 28.0
66.4165 25.0
66.437 23.0
66.4574 23.0
66.4778 19.0
66.4983 12.0
66.5187 9.0
66.5391 14.0
66.5596 13.0
66.58 10.0
66.6004 17.0
66.6209 9.0
66.6413 8.0
66.6617 17.0
66.6822 19.0
66.7026 14.0
66.723 11.0
66.7435 15.0
66.7639 15.0
66.7843 16.0
66.8048 12.0
66.8252 14.0
66.8456 13.0
66.8661 18.0
66.8865 11.0
66.9069 15.0
66.9274 16.0
66.9478 8.0
66.9682 10.0
66.9887 18.0
67.0091 10.0
67.0295 10.0
67.05 10.0
67.0704 18.0
67.0908 12.0
67.1112 10.0
67.1317 18.0
67.1521 13.0
67.1725 13.0
67.193 9.0
67.2134 10.0
67.2338 9.0
67.2543 15.0
67.2747 15.0
67.2951 15.0
67.3156 11.0
67.336 10.0
67.3564 9.0
67.3769 12.0
67.3973 14.0
67.4177 15.0
67.4382 11.0
67.4586 17.0
67.479 8.0
67.4995 13.0
67.5199 10.0
67.5403 7.0
67.5608 11.0
67.5812 11.0
67.6016 10.0
67.6221 5.0
67.6425 11.0
67.6629 11.0
67.6834 15.0
67.7038 11.0
67.7242 5.0
67.7447 12.0
67.7651 6.0
67.7855 17.0
67.806 12.0
67.8264 14.0
67.8468 22.0
67.8673 9.0
67.8877 9.0
67.9081 12.0
67.9286 12.0
67.949 12.0
67.9694 2.0
67.9899 7.0
68.0103 12.0
68.0307 13.0
68.0511 11.0
68.0716 9.0
68.092 12.0
68.1124 14.0
68.1329 16.0
68.1533 9.0
68.1737 8.0
68.1942 7.0
68.2146 5.0
68.235 12.0
68.2555 10.0
68.2759 8.0
68.2963 10.0
68.3168 16.0
68.3372 14.0
68.3576 12.0
68.3781 10.0
68.3985 13.0
68.4189 24.0
68.4394 8.0
68.4598 13.0
68.4802 12.0
68.5007 11.0
68.5211 9.0
68.5415 13.0
68.562 14.0
68.5824 9.0
68.6028 12.0
68.6233 12.0
68.6437 14.0
68.6641 11.0
68.6846 13.0
68.705 14.0
68.7254 17.0
68.7459 9.0
68.7663 10.0
68.7867 11.0
68.8072 12.0
68.8276 10.0
68.848 11.0
68.8685 15.0
68.8889 19.0
68.9093 14.0
68.9297 15.0
68.9502 15.0
68.9706 15.0
68.991 25.0
69.0115 18.0
69.0319 31.0
69.0523 37.0
69.0728 29.0
69.0932 31.0
69.1136 22.0
69.1341 41.0
69.1545 27.0
69.1749 25.0
69.1954 30.0
69.2158 28.0
69.2362 24.0
69.2567 25.0
69.2771 28.0
69.2975 14.0
69.318 23.0
69.3384 19.0
69.3588 24.0
69.3793 17.0
69.3997 20.0
69.4201 20.0
69.4406 25.0
69.461 12.0
69.4814 26.0
69.5019 7.0
69.5223 13.0
69.5427 14.0
69.5632 18.0
69.5836 15.0
69.604 20.0
69.6245 11.0
69.6449 6.0
69.6653 12.0
69.6858 18.0
69.7062 12.0
69.7266 26.0
69.7471 17.0
69.7675 16.0
69.7879 17.0
69.8084 19.0
69.8288 25.0
69.8492 21.0
69.8696 17.0
69.8901 24.0
69.9105 17.0
69.9309 22.0
69.9514 14.0
69.9718 9.0
69.9922 14.0
70.0127 22.0
70.0331 16.0
70.0535 20.0
70.074 11.0
70.0944 14.0
70.1148 20.0
70.1353 12.0
70.1557 11.0
70.1761 15.0
70.1966 10.0
70.217 15.0
70.2374 17.0
70.2579 22.0
70.2783 16.0
70.2987 20.0
70.3192 15.0
70.3396 13.0
70.36 21.0
70.3805 23.0
70.4009 18.0
70.4213 18.0
70.4418 18.0
70.4622 14.0
70.4826 11.0
70.5031 16.0
70.5235 12.0
70.5439 21.0
70.5644 13.0
70.5848 17.0
70.6052 12.0
70.6257 18.0
70.6461 9.0
70.6665 13.0
70.687 8.0
70.7074 12.0
70.7278 11.0
70.7483 10.0
70.7687 16.0
70.7891 20.0
70.8095 14.0
70.83 20.0
70.8504 11.0
70.8708 17.0
70.8913 15.0
70.9117 14.0
70.9321 16.0
70.9526 20.0
70.973 16.0
70.9934 20.0
71.0139 18.0
71.0343 23.0
71.0547 24.0
71.0752 27.0
71.0956 20.0
71.116 19.0
71.1365 28.0
71.1569 43.0
71.1773 33.0
71.1978 37.0
71.2182 46.0
71.2386 43.0
71.2591 32.0
71.2795 44.0
71.2999 41.0
71.3204 48.0
71.3408 39.0
71.3612 45.0
71.3817 41.0
71.4021 51.0
71.4225 48.0
71.443 50.0
71.4634 51.0
71.4838 38.0
71.5043 39.0
71.5247 39.0
71.5451 44.0
71.5656 46.0
71.586 47.0
71.6064 36.0
71.6269 43.0
71.6473 35.0
71.6677 39.0
71.6881 49.0
71.7086 32.0
71.729 24.0
71.7494 23.0
71.7699 29.0
71.7903 32.0
71.8107 15.0
71.8312 16.0
71.8516 21.0
71.872 14.0
71.8925 20.0
71.9129 17.0
71.9333 17.0
71.9538 28.0
71.9742 25.0
71.9946 13.0
72.0151 26.0
72.0355 17.0
72.0559 28.0
72.0764 24.0
72.0968 22.0
72.1172 25.0
72.1377 31.0
72.1581 26.0
72.1785 30.0
72.199 26.0
72.2194 22.0
72.2398 32.0
72.2603 22.0
72.2807 32.0
72.3011 40.0
72.3216 28.0
72.342 30.0
72.3624 21.0
72.3829 39.0
72.4033 29.0
72.4237 25.0
72.4442 26.0
72.4646 30.0
72.485 24.0
72.5055 26.0
72.5259 24.0
72.5463 22.0
72.5668 22.0
72.5872 34.0
72.6076 19.0
72.628 23.0
72.6485 27.0
72.6689 18.0
72.6893 25.0
72.7098 28.0
72.7302 31.0
72.7506 31.0
72.7711 25.0
72.7915 25.0
72.8119 22.0
72.8324 20.0
72.8528 28.0
72.8732 26.0
72.8937 27.0
72.9141 37.0
72.9345 31.0
72.955 21.0
72.9754 24.0
72.9958 24.0
73.0163 25.0
73.0367 24.0
73.0571 13.0
73.0776 19.0
73.098 16.0
73.1184 20.0
73.1389 10.0
73.1593 15.0
73.1797 25.0
73.2002 11.0
73.2206 14.0
73.241 14.0
73.2615 12.0
73.2819 18.0
73.3023 7.0
73.3228 14.0
73.3432 13.0
73.3636 19.0
73.3841 6.0
73.4045 16.0
73.4249 16.0
73.4454 22.0
73.4658 17.0
73.4862 7.0
73.5066 9.0
73.5271 14.0
73.5475 14.0
73.5679 14.0
73.5884 14.0
73.6088 16.0
73.6292 14.0
73.6497 17.0
73.6701 17.0
73.6905 18.0
73.711 20.0
73.7314 20.0
73.7518 8.0
73.7723 13.0
73.7927 13.0
73.8131 10.0
73.8336 19.0
73.854 23.0
73.8744 12.0
73.8949 20.0
73.9153 11.0
73.9357 13.0
73.9562 10.0
73.9766 14.0
73.997 18.0
74.0175 14.0
74.0379 12.0
74.0583 10.0
74.0788 21.0
74.0992 12.0
74.1196 21.0
74.1401 14.0
74.1605 13.0
74.1809 10.0
74.2014 9.0
74.2218 12.0
74.2422 15.0
74.2627 9.0
74.2831 13.0
74.3035 20.0
74.324 15.0
74.3444 16.0
74.3648 14.0
74.3853 23.0
74.4057 22.0
74.4261 15.0
74.4465 16.0
74.467 15.0
74.4874 15.0
74.5078 12.0
74.5283 14.0
74.5487 18.0
74.5691 20.0
74.5896 13.0
74.61 28.0
74.6304 18.0
74.6509 21.0
74.6713 26.0
74.6917 17.0
74.7122 18.0
74.7326 26.0
74.753 12.0
74.7735 25.0
74.7939 26.0
74.8143 35.0
74.8348 26.0
74.8552 37.0
74.8756 44.0
74.8961 22.0
74.9165 39.0
74.9369 27.0
74.9574 24.0
74.9778 21.0
74.9982 31.0
75.0187 34.0
75.0391 43.0
75.0595 34.0
75.08 31.0
75.1004 30.0
75.1208 42.0
75.1413 32.0
75.1617 35.0
75.1821 48.0
75.2026 50.0
75.223 38.0
75.2434 46.0
75.2639 45.0
75.2843 48.0
75.3047 47.0
75.3252 46.0
75.3456 41.0
75.366 50.0
75.3864 42.0
75.4069 34.0
75.4273 39.0
75.4477 43.0
75.4682 34.0
75.4886 31.0
75.509 39.0
75.5295 31.0
75.5499 30.0
75.5703 29.0
75.5908 27.0
75.6112 30.0
75.6316 31.0
75.6521 30.0
75.6725 28.0
75.6929 25.0
75.7134 20.0
75.7338 18.0
75.7542 26.0
75.7747 19.0
75.7951 23.0
75.8155 26.0
75.836 17.0
75.8564 20.0
75.8768 26.0
75.8973 14.0
75.9177 27.0
75.9381 25.0
75.9586 19.0
75.979 20.0
75.9994 22.0
76.0199 18.0
76.0403 19.0
76.0607 16.0
76.0812 20.0
76.1016 17.0
76.122 13.0
76.1425 10.0
76.1629 20.0
76.1833 20.0
76.2038 20.0
76.2242 13.0
76.2446 17.0
76.265 14.0
76.2855 17.0
76.3059 12.0
76.3263 16.0
76.3468 15.0
76.3672 26.0
76.3876 22.0
76.4081 19.0
76.4285 15.0
76.4489 23.0
76.4694 21.0
76.4898 22.0
76.5102 29.0
76.5307 16.0
76.5511 28.0
76.5715 28.0
76.592 34.0
76.6124 23.0
76.6328 38.0
76.6533 21.0
76.6737 30.0
76.6941 22.0
76.7146 31.0
76.735 17.0
76.7554 25.0
76.7759 33.0
76.7963 34.0
76.8167 20.0
76.8372 22.0
76.8576 20.0
76.878 25.0
76.8985 21.0
76.9189 19.0
76.9393 17.0
76.9598 20.0
76.9802 23.0
77.0006 16.0
77.0211 17.0
77.0415 16.0
77.0619 18.0
77.0824 21.0
77.1028 14.0
77.1232 14.0
77.1437 20.0
77.1641 23.0
77.1845 14.0
77.2049 11.0
77.2254 17.0
77.2458 20.0
77.2662 15.0
77.2867 18.0
77.3071 12.0
77.3275 21.0
77.348 22.0
77.3684 8.0
77.3888 19.0
77.4093 28.0
77.4297 25.0
77.4501 24.0
77.4706 21.0
77.491 26.0
77.5114 25.0
77.5319 27.0
77.5523 29.0
77.5727 20.0
77.5932 17.0
77.6136 15.0
77.634 27.0
77.6545 22.0
77.6749 15.0
77.6953 27.0
77.7158 27.0
77.7362 28.0
77.7566 29.0
77.7771 24.0
77.7975 21.0
77.8179 22.0
77.8384 20.0
77.8588 14.0
77.8792 8.0
77.8997 15.0
77.9201 13.0
77.9405 31.0
77.961 20.0
77.9814 25.0
78.0018 20.0
78.0223 24.0
78.0427 20.0
78.0631 15.0
78.0835 13.0
78.104 16.0
78.1244 15.0
78.1448 24.0
78.1653 21.0
78.1857 20.0
78.2061 29.0
78.2266 19.0
78.247 17.0
78.2674 20.0
78.2879 15.0
78.3083 25.0
78.3287 24.0
78.3492 16.0
78.3696 22.0
78.39 20.0
78.4105 21.0
78.4309 16.0
78.4513 16.0
78.4718 26.0
78.4922 25.0
78.5126 13.0
78.5331 13.0
78.5535 19.0
78.5739 15.0
78.5944 22.0
78.6148 10.0
78.6352 21.0
78.6557 12.0
78.6761 18.0
78.6965 12.0
78.717 24.0
78.7374 19.0
78.7578 17.0
78.7783 18.0
78.7987 16.0
78.8191 17.0
78.8396 22.0
78.86 25.0
78.8804 22.0
78.9009 21.0
78.9213 23.0
78.9417 20.0
78.9622 29.0
78.9826 21.0
79.003 34.0
79.0234 36.0
79.0439 30.0
79.0643 35.0
79.0847 35.0
79.1052 31.0
79.1256 34.0
79.146 22.0
79.1665 36.0
79.1869 21.0
79.2073 34.0
79.2278 31.0
79.2482 34.0
79.2686 28.0
79.2891 28.0
79.3095 26.0
79.3299 19.0
79.3504 25.0
79.3708 24.0
79.3912 21.0
79.4117 28.0
79.4321 10.0
79.4525 19.0
79.473 22.0
79.4934 16.0
79.5138 19.0
79.5343 15.0
79.5547 15.0
79.5751 13.0
79.5956 12.0
79.616 11.0
79.6364 13.0
79.6569 13.0
79.6773 5.0
79.6977 16.0
79.7182 15.0
79.7386 11.0
79.759 10.0
79.7795 16.0
79.7999 9.0
79.8203 7.0
79.8408 9.0
79.8612 9.0
79.8816 9.0
79.9021 11.0
79.9225 9.0
79.9429 10.0
79.9633 14.0
79.9838 17.0
80.0042 17.0
80.0246 16.0
80.0451 11.0
80.0655 12.0
80.0859 14.0
80.1064 7.0
80.1268 10.0
80.1472 10.0
80.1677 11.0
80.1881 12.0
80.2085 16.0
80.229 10.0
80.2494 15.0
80.2698 15.0
80.2903 10.0
80.3107 10.0
80.3311 16.0
80.3516 8.0
80.372 12.0
80.3924 10.0
80.4129 13.0
80.4333 13.0
80.4537 11.0
80.4742 10.0
80.4946 11.0
80.515 22.0
80.5355 9.0
80.5559 10.0
80.5763 11.0
80.5968 12.0
80.6172 15.0
80.6376 16.0
80.6581 17.0
80.6785 13.0
80.6989 17.0
80.7194 13.0
80.7398 11.0
80.7602 21.0
80.7807 13.0
80.8011 17.0
80.8215 15.0
80.8419 12.0
80.8624 16.0
80.8828 12.0
80.9032 14.0
80.9237 10.0
80.9441 9.0
80.9645 16.0
80.985 19.0
81.0054 15.0
81.0258 7.0
81.0463 15.0
81.0667 9.0
81.0871 9.0
81.1076 8.0
81.128 16.0
81.1484 12.0
81.1689 18.0
81.1893 16.0
81.2097 12.0
81.2302 20.0
81.2506 20.0
81.271 13.0
81.2915 17.0
81.3119 11.0
81.3323 12.0
81.3528 13.0
81.3732 23.0
81.3936 16.0
81.4141 14.0
81.4345 17.0
81.4549 12.0
81.4754 19.0
81.4958 24.0
81.5162 18.0
81.5367 24.0
81.5571 12.0
81.5775 21.0
81.598 22.0
81.6184 10.0
81.6388 19.0
81.6593 25.0
81.6797 21.0
81.7001 30.0
81.7206 27.0
81.741 27.0
81.7614 27.0
81.7818 32.0
81.8023 28.0
81.8227 24.0
81.8431 24.0
81.8636 21.0
81.884 24.0
81.9044 15.0
81.9249 15.0
81.9453 19.0
81.9657 18.0
81.9862 24.0
82.0066 19.0
82.027 30.0
82.0475 13.0
82.0679 28.0
82.0883 20.0
82.1088 18.0
82.1292 23.0
82.1496 19.0
82.1701 19.0
82.1905 10.0
82.2109 15.0
82.2314 15.0
82.2518 13.0
82.2722 17.0
82.2927 15.0
82.3131 21.0
82.3335 23.0
82.354 23.0
82.3744 26.0
82.3948 23.0
82.4153 22.0
82.4357 23.0
82.4561 14.0
82.4766 14.0
82.497 25.0
82.5174 25.0
82.5379 24.0
82.5583 25.0
82.5787 28.0
82.5992 32.0
82.6196 20.0
82.64 27.0
82.6604 41.0
82.6809 27.0
82.7013 22.0
82.7217 37.0
82.7422 24.0
82.7626 33.0
82.783 33.0
82.8035 26.0
82.8239 34.0
82.8443 25.0
82.8648 30.0
82.8852 24.0
82.9056 23.0
82.9261 31.0
82.9465 48.0
82.9669 30.0
82.9874 27.0
83.0078 35.0
83.0282 29.0
83.0487 33.0
83.0691 34.0
83.0895 23.0
83.11 36.0
83.1304 25.0
83.1508 31.0
83.1713 45.0
83.1917 35.0
83.2121 29.0
83.2326 43.0
83.253 34.0
83.2734 33.0
83.2939 35.0
83.3143 37.0
83.3347 36.0
83.3552 32.0
83.3756 34.0
83.396 32.0
83.4165 32.0
83.4369 30.0
83.4573 29.0
83.4778 30.0
83.4982 41.0
83.5186 41.0
83.5391 29.0
83.5595 31.0
83.5799 29.0
83.6003 30.0
83.6208 28.0
83.6412 34.0
83.6616 24.0
83.6821 32.0
83.7025 33.0
83.7229 27.0
83.7434 26.0
83.7638 36.0
83.7842 19.0
83.8047 24.0
83.8251 26.0
83.8455 27.0
83.866 30.0
83.8864 34.0
83.9068 29.0
83.9273 25.0
83.9477 32.0
83.9681 31.0
83.9886 24.0
84.009 36.0
84.0294 37.0
84.0499 38.0
84.0703 31.0
84.0907 39.0
84.1112 26.0
84.1316 41.0
84.152 35.0
84.1725 29.0
84.1929 35.0
84.2133 24.0
84.2338 37.0
84.2542 32.0
84.2746 38.0
84.2951 30.0
84.3155 24.0
84.3359 30.0
84.3564 40.0
84.3768 37.0
84.3972 24.0
84.4177 30.0
84.4381 27.0
84.4585 27.0
84.4789 48.0
84.4994 30.0
84.5198 39.0
84.5402 23.0
84.5607 26.0
84.5811 24.0
84.6015 23.0
84.622 21.0
84.6424 18.0
84.6628 29.0
84.6833 18.0
84.7037 20.0
84.7241 22.0
84.7446 20.0
84.765 23.0
84.7854 13.0
84.8059 21.0
84.8263 23.0
84.8467 18.0
84.8672 19.0
84.8876 31.0
84.908 20.0
84.9285 22.0
84.9489 31.0
84.9693 25.0
84.9898 26.0
85.0102 26.0
85.0306 34.0
85.0511 28.0
85.0715 17.0
85.0919 25.0
85.1124 20.0
85.1328 29.0
85.1532 29.0
85.1737 17.0
85.1941 28.0
85.2145 20.0
85.235 26.0
85.2554 33.0
85.2758 18.0
85.2963 24.0
85.3167 23.0
85.3371 16.0
85.3576 22.0
85.378 12.0
85.3984 14.0
85.4188 20.0
85.4393 10.0
85.4597 11.0
85.4801 15.0
85.5006 11.0
85.521 12.0
85.5414 18.0
85.5619 15.0
85.5823 16.0
85.6027 14.0
85.6232 16.0
85.6436 18.0
85.664 12.0
85.6845 14.0
85.7049 12.0
85.7253 15.0
85.7458 17.0
85.7662 11.0
85.7866 17.0
85.8071 9.0
85.8275 10.0
85.8479 12.0
85.8684 12.0
85.8888 15.0
85.9092 14.0
85.9297 11.0
85.9501 22.0
85.9705 24.0
85.991 16.0
86.0114 17.0
86.0318 12.0
86.0523 22.0
86.0727 18.0
86.0931 16.0
86.1136 19.0
86.134 23.0
86.1544 12.0
86.1749 17.0
86.1953 26.0
86.2157 18.0
86.2362 22.0
86.2566 13.0
86.277 17.0
86.2975 27.0
86.3179 27.0
86.3383 25.0
86.3587 22.0
86.3792 19.0
86.3996 15.0
86.42 17.0
86.4405 25.0
86.4609 16.0
86.4813 19.0
86.5018 16.0
86.5222 22.0
86.5426 24.0
86.5631 17.0
86.5835 18.0
86.6039 19.0
86.6244 15.0
86.6448 21.0
86.6652 23.0
86.6857 10.0
86.7061 18.0
86.7265 15.0
86.747 19.0
86.7674 12.0
86.7878 18.0
86.8083 15.0
86.8287 15.0
86.8491 17.0
86.8696 12.0
86.89 8.0
86.9104 18.0
86.9309 21.0
86.9513 11.0
86.9717 10.0
86.9922 9.0
87.0126 25.0
87.033 9.0
87.0535 10.0
87.0739 18.0
87.0943 16.0
87.1148 16.0
87.1352 17.0
87.1556 17.0
87.1761 20.0
87.1965 12.0
87.2169 15.0
87.2373 17.0
87.2578 14.0
87.2782 24.0
87.2986 30.0
87.3191 12.0
87.3395 15.0
87.3599 14.0
87.3804 12.0
87.4008 14.0
87.4212 17.0
87.4417 26.0
87.4621 18.0
87.4825 29.0
87.503 35.0
87.5234 29.0
87.5438 32.0
87.5643 29.0
87.5847 32.0
87.6051 34.0
87.6256 29.0
87.646 27.0
87.6664 27.0
87.6869 33.0
87.7073 30.0
87.7277 27.0
87.7482 13.0
87.7686 20.0
87.789 30.0
87.8095 20.0
87.8299 23.0
87.8503 23.0
87.8708 21.0
87.8912 26.0
87.9116 23.0
87.9321 27.0
87.9525 25.0
87.9729 31.0
87.9934 16.0
88.0138 33.0
88.0342 23.0
88.0547 21.0
88.0751 21.0
88.0955 29.0
88.116 35.0
88.1364 16.0
88.1568 32.0
88.1772 25.0
88.1977 32.0
88.2181 30.0
88.2385 25.0
88.259 37.0
88.2794 36.0
88.2998 32.0
88.3203 44.0
88.3407 33.0
88.3611 40.0
88.3816 44.0
88.402 32.0
88.4224 25.0
88.4429 33.0
88.4633 31.0
88.4837 35.0
88.5042 39.0
88.5246 28.0
88.545 42.0
88.5655 30.0
88.5859 52.0
88.6063 52.0
88.6268 41.0
88.6472 46.0
88.6676 54.0
88.6881 41.0
88.7085 44.0
88.7289 23.0
88.7494 42.0
88.7698 32.0
88.7902 33.0
88.8107 26.0
88.8311 32.0
88.8515 24.0
88.872 37.0
88.8924 33.0
88.9128 25.0
88.9333 34.0
88.9537 29.0
88.9741 28.0
88.9946 22.0
89.015 20.0
89.0354 32.0
89.0558 16.0
89.0763 23.0
89.0967 17.0
89.1171 26.0
89.1376 21.0
89.158 13.0
89.1784 21.0
89.1989 16.0
89.2193 23.0
89.2397 22.0
89.2602 17.0
89.2806 22.0
89.301 21.0
89.3215 18.0
89.3419 25.0
89.3623 22.0
89.3828 30.0
89.4032 26.0
89.4236 31.0
89.4441 21.0
89.4645 33.0
89.4849 21.0
89.5054 22.0
89.5258 23.0
89.5462 30.0
89.5667 24.0
89.5871 23.0
89.6075 22.0
89.628 27.0
89.6484 21.0
89.6688 22.0
89.6893 25.0
89.7097 26.0
89.7301 30.0
89.7506 31.0
89.771 41.0
89.7914 32.0
89.8119 21.0
89.8323 28.0
89.8527 33.0
89.8732 31.0
89.8936 38.0
89.914 38.0
89.9345 36.0
89.9549 32.0
89.9753 23.0
89.9957 30.0
90.0162 44.0
90.0366 25.0
90.057 31.0
90.0775 23.0
90.0979 21.0
