9.9 67.0
9.9204 81.0
9.9409 81.0
9.9613 65.0
9.9817 74.0
10.0022 76.0
10.0226 83.0
10.043 65.0
10.0635 84.0
10.0839 82.0
10.1043 70.0
10.1248 74.0
10.1452 70.0
10.1656 70.0
10.1861 78.0
10.2065 79.0
10.2269 69.0
10.2474 78.0
10.2678 69.0
10.2882 72.0
10.3087 72.0
10.3291 74.0
10.3495 75.0
10.3699 65.0
10.3904 71.0
10.4108 74.0
10.4312 62.0
10.4517 65.0
10.4721 68.0
10.4925 61.0
10.513 55.0
10.5334 76.0
10.5538 64.0
10.5743 60.0
10.5947 75.0
10.6151 67.0
10.6356 59.0
10.656 74.0
10.6764 60.0
10.6969 71.0
10.7173 72.0
10.7377 64.0
10.7582 69.0
10.7786 68.0
10.799 52.0
10.8195 74.0
10.8399 58.0
10.8603 48.0
10.8808 65.0
10.9012 69.0
10.9216 61.0
10.9421 65.0
10.9625 78.0
10.9829 60.0
11.0034 66.0
11.0238 58.0
11.0442 41.0
11.0647 72.0
11.0851 56.0
11.1055 70.0
11.126 48.0
11.1464 56.0
11.1668 57.0
11.1873 57.0
11.2077 47.0
11.2281 59.0
11.2486 55.0
11.269 66.0
11.2894 69.0
11.3098 66.0
11.3303 50.0
11.3507 62.0
11.3711 54.0
11.3916 67.0
11.412 50.0
11.4324 56.0
11.4529 53.0
11.4733 61.0
11.4937 61.0
11.5142 58.0
11.5346 56.0
11.555 60.0
11.5755 42.0
11.5959 69.0
11.6163 64.0
11.6368 49.0
11.6572 47.0
11.6776 55.0
11.6981 58.0
11.7185 68.0
11.7389 58.0
11.7594 46.0
11.7798 53.0
11.8002 68.0
11.8207 56.0
11.8411 47.0
11.8615 60.0
11.882 54.0
11.9024 56.0
11.9228 52.0
11.9433 55.0
11.9637 59.0
11.9841 53.0
12.0046 51.0
12.025 53.0
12.0454 53.0
12.0659 65.0
12.0863 47.0
12.1067 59.0
12.1272 53.0
12.1476 55.0
12.168 47.0
12.1884 55.0
12.2089 45.0
12.2293 52.0
12.2497 54.0
12.2702 43.0
12.2906 63.0
12.311 48.0
12.3315 65.0
12.3519 53.0
12.3723 48.0
12.3928 60.0
12.4132 62.0
12.4336 60.0
12.4541 45.0
12.4745 45.0
12.4949 43.0
12.5154 51.0
12.5358 34.0
12.5562 49.0
12.5767 46.0
12.5971 54.0
12.6175 51.0
12.638 50.0
12.6584 49.0
12.6788 52.0
12.6993 46.0
12.7197 56.0
12.7401 44.0
12.7606 54.0
12.781 60.0
12.8014 53.0
12.8219 45.0
12.8423 51.0
12.8627 47.0
12.8832 51.0
12.9036 50.0
12.924 50.0
12.9445 44.0
12.9649 32.0
12.9853 39.0
13.0058 39.0
13.0262 42.0
13.0466 41.0
13.0671 42.0
13.0875 40.0
13.1079 49.0
13.1283 48.0
13.1488 49.0
13.1692 40.0
13.1896 42.0
13.2101 45.0
13.2305 47.0
13.2509 46.0
13.2714 37.0
13.2918 50.0
13.3122 45.0
13.3327 41.0
13.3531 44.0
13.3735 48.0
13.394 42.0
13.4144 45.0
13.4348 49.0
13.4553 36.0
13.4757 46.0
13.4961 49.0
13.5166 48.0
13.537 52.0
13.5574 44.0
13.5779 40.0
13.5983 34.0
13.6187 31.0
13.6392 37.0
13.6596 47.0
13.68 48.0
13.7005 41.0
13.7209 30.0
13.7413 36.0
13.7618 31.0
13.7822 36.0
13.8026 42.0
13.8231 37.0
13.8435 43.0
13.8639 27.0
13.8844 40.0
13.9048 49.0
13.9252 42.0
13.9457 51.0
13.9661 46.0
13.9865 35.0
14.007 46.0
14.0274 32.0
14.0478 36.0
14.0682 45.0
14.0887 40.0
14.1091 37.0
14.1295 39.0
14.15 34.0
14.1704 41.0
14.1908 27.0
14.2113 50.0
14.2317 35.0
14.2521 40.0
14.2726 52.0
14.293 35.0
14.3134 42.0
14.3339 32.0
14.3543 30.0
14.3747 44.0
14.3952 41.0
14.4156 47.0
14.436 40.0
14.4565 32.0
14.4769 41.0
14.4973 39.0
14.5178 36.0
14.5382 28.0
14.5586 40.0
14.5791 44.0
14.5995 38.0
14.6199 35.0
14.6404 36.0
14.6608 37.0
14.6812 35.0
14.7017 27.0
14.7221 31.0
14.7425 58.0
14.763 37.0
14.7834 26.0
14.8038 47.0
14.8243 30.0
14.8447 45.0
14.8651 43.0
14.8856 39.0
14.906 31.0
14.9264 42.0
14.9468 34.0
14.9673 39.0
14.9877 35.0
15.0081 29.0
15.0286 24.0
15.049 46.0
15.0694 33.0
15.0899 36.0
15.1103 46.0
15.1307 42.0
15.1512 36.0
15.1716 41.0
15.192 33.0
15.2125 39.0
15.2329 30.0
15.2533 38.0
15.2738 32.0
15.2942 31.0
15.3146 33.0
15.3351 19.0
15.3555 28.0
15.3759 40.0
15.3964 38.0
15.4168 31.0
15.4372 26.0
15.4577 52.0
15.4781 39.0
15.4985 28.0
15.519 39.0
15.5394 37.0
15.5598 41.0
15.5803 34.0
15.6007 33.0
15.6211 40.0
15.6416 25.0
15.662 33.0
15.6824 32.0
15.7029 31.0
15.7233 37.0
15.7437 26.0
15.7642 26.0
15.7846 37.0
15.805 27.0
15.8255 36.0
15.8459 38.0
15.8663 20.0
15.8867 33.0
15.9072 21.0
15.9276 31.0
15.948 29.0
15.9685 30.0
15.9889 37.0
16.0093 37.0
16.0298 41.0
16.0502 41.0
16.0706 32.0
16.0911 36.0
16.1115 27.0
16.1319 34.0
16.1524 41.0
16.1728 35.0
16.1932 32.0
16.2137 24.0
16.2341 23.0
16.2545 35.0
16.275 30.0
16.2954 40.0
16.3158 27.0
16.3363 33.0
16.3567 37.0
16.3771 27.0
16.3976 29.0
16.418 23.0
16.4384 32.0
16.4589 32.0
16.4793 34.0
16.4997 32.0
16.5202 32.0
16.5406 30.0
16.561 37.0
16.5815 29.0
16.6019 30.0
16.6223 20.0
16.6428 31.0
16.6632 34.0
16.6836 33.0
16.7041 40.0
16.7245 34.0
16.7449 31.0
16.7653 29.0
16.7858 30.0
16.8062 24.0
16.8266 30.0
16.8471 20.0
16.8675 25.0
16.8879 30.0
16.9084 24.0
16.9288 28.0
16.9492 27.0
16.9697 35.0
16.9901 25.0
17.0105 35.0
17.031 35.0
17.0514 31.0
17.0718 33.0
17.0923 26.0
17.1127 30.0
17.1331 31.0
17.1536 29.0
17.174 27.0
17.1944 24.0
17.2149 32.0
17.2353 31.0
17.2557 30.0
17.2762 23.0
17.2966 37.0
17.317 19.0
17.3375 21.0
17.3579 24.0
17.3783 24.0
17.3988 25.0
17.4192 28.0
17.4396 30.0
17.4601 20.0
17.4805 34.0
17.5009 25.0
17.5214 32.0
17.5418 24.0
17.5622 28.0
17.5827 30.0
17.6031 29.0
17.6235 21.0
17.644 30.0
17.6644 28.0
17.6848 26.0
17.7052 25.0
17.7257 18.0
17.7461 39.0
17.7665 26.0
17.787 15.0
17.8074 23.0
17.8278 35.0
17.8483 29.0
17.8687 29.0
17.8891 33.0
17.9096 28.0
17.93 25.0
17.9504 26.0
17.9709 28.0
17.9913 14.0
18.0117 33.0
18.0322 26.0
18.0526 30.0
18.073 27.0
18.0935 36.0
18.1139 26.0
18.1343 38.0
18.1548 25.0
18.1752 22.0
18.1956 31.0
18.2161 25.0
18.2365 19.0
18.2569 23.0
18.2774 19.0
18.2978 26.0
18.3182 22.0
18.3387 32.0
18.3591 30.0
18.3795 23.0
18.4 24.0
18.4204 19.0
18.4408 21.0
18.4613 16.0
18.4817 18.0
18.5021 21.0
18.5226 23.0
18.543 29.0
18.5634 19.0
18.5839 37.0
18.6043 32.0
18.6247 24.0
18.6451 28.0
18.6656 20.0
18.686 25.0
18.7064 26.0
18.7269 18.0
18.7473 22.0
18.7677 16.0
18.7882 24.0
18.8086 26.0
18.829 30.0
18.8495 32.0
18.8699 14.0
18.8903 38.0
18.9108 25.0
18.9312 24.0
18.9516 25.0
18.9721 25.0
18.9925 15.0
19.0129 24.0
19.0334 21.0
19.0538 22.0
19.0742 26.0
19.0947 22.0
19.1151 25.0
19.1355 31.0
19.156 17.0
19.1764 24.0
19.1968 21.0
19.2173 17.0
19.2377 24.0
19.2581 28.0
19.2786 33.0
19.299 18.0
19.3194 25.0
19.3399 22.0
19.3603 21.0
19.3807 18.0
19.4012 22.0
19.4216 28.0
19.442 23.0
19.4625 30.0
19.4829 26.0
19.5033 22.0
19.5237 25.0
19.5442 24.0
19.5646 21.0
19.585 25.0
19.6055 23.0
19.6259 34.0
19.6463 20.0
19.6668 25.0
19.6872 24.0
19.7076 25.0
19.7281 27.0
19.7485 27.0
19.7689 17.0
19.7894 35.0
19.8098 18.0
19.8302 21.0
19.8507 16.0
19.8711 22.0
19.8915 33.0
19.912 11.0
19.9324 18.0
19.9528 20.0
19.9733 18.0
19.9937 25.0
20.0141 35.0
20.0346 19.0
20.055 21.0
20.0754 19.0
20.0959 28.0
20.1163 22.0
20.1367 23.0
20.1572 24.0
20.1776 15.0
20.198 31.0
20.2185 25.0
20.2389 24.0
20.2593 24.0
20.2798 16.0
20.3002 25.0
20.3206 27.0
20.3411 28.0
20.3615 16.0
20.3819 27.0
20.4024 29.0
20.4228 19.0
20.4432 18.0
20.4636 26.0
20.4841 24.0
20.5045 23.0
20.5249 21.0
20.5454 11.0
20.5658 22.0
20.5862 19.0
20.6067 21.0
20.6271 24.0
20.6475 26.0
20.668 18.0
20.6884 21.0
20.7088 24.0
20.7293 28.0
20.7497 26.0
20.7701 21.0
20.7906 13.0
20.811 25.0
20.8314 12.0
20.8519 17.0
20.8723 28.0
20.8927 24.0
20.9132 20.0
20.9336 22.0
20.954 26.0
20.9745 18.0
20.9949 29.0
21.0153 22.0
21.0358 15.0
21.0562 23.0
21.0766 34.0
21.0971 29.0
21.1175 19.0
21.1379 23.0
21.1584 22.0
21.1788 25.0
21.1992 18.0
21.2197 22.0
21.2401 18.0
21.2605 13.0
21.281 24.0
21.3014 12.0
21.3218 19.0
21.3422 22.0
21.3627 28.0
21.3831 19.0
21.4035 19.0
21.424 17.0
21.4444 13.0
21.4648 15.0
21.4853 13.0
21.5057 21.0
21.5261 10.0
21.5466 27.0
21.567 19.0
21.5874 23.0
21.6079 23.0
21.6283 23.0
21.6487 19.0
21.6692 27.0
21.6896 17.0
21.71 21.0
21.7305 23.0
21.7509 17.0
21.7713 19.0
21.7918 20.0
21.8122 24.0
21.8326 19.0
21.8531 17.0
21.8735 15.0
21.8939 16.0
21.9144 22.0
21.9348 27.0
21.9552 23.0
21.9757 20.0
21.9961 20.0
22.0165 24.0
22.037 20.0
22.0574 18.0
22.0778 16.0
22.0983 23.0
22.1187 15.0
22.1391 18.0
22.1596 10.0
22.18 22.0
22.2004 22.0
22.2209 19.0
22.2413 13.0
22.2617 21.0
22.2821 25.0
22.3026 18.0
22.323 30.0
22.3434 16.0
22.3639 23.0
22.3843 26.0
22.4047 26.0
22.4252 12.0
22.4456 14.0
22.466 23.0
22.4865 24.0
22.5069 20.0
22.5273 22.0
22.5478 16.0
22.5682 16.0
22.5886 19.0
22.6091 22.0
22.6295 18.0
22.6499 15.0
22.6704 24.0
22.6908 21.0
22.7112 18.0
22.7317 12.0
22.7521 21.0
22.7725 13.0
22.793 17.0
22.8134 20.0
22.8338 16.0
22.8543 15.0
22.8747 16.0
22.8951 10.0
22.9156 15.0
22.936 23.0
22.9564 26.0
22.9769 23.0
22.9973 24.0
23.0177 22.0
23.0382 17.0
23.0586 8.0
23.079 27.0
23.0995 16.0
23.1199 20.0
23.1403 16.0
23.1608 34.0
23.1812 26.0
23.2016 19.0
23.222 14.0
23.2425 34.0
23.2629 34.0
23.2833 28.0
23.3038 15.0
23.3242 19.0
23.3446 17.0
23.3651 21.0
23.3855 18.0
23.4059 10.0
23.4264 13.0
23.4468 15.0
23.4672 23.0
23.4877 13.0
23.5081 15.0
23.5285 14.0
23.549 18.0
23.5694 25.0
23.5898 17.0
23.6103 23.0
23.6307 16.0
23.6511 12.0
23.6716 15.0
23.692 17.0
23.7124 20.0
23.7329 14.0
23.7533 15.0
23.7737 25.0
23.7942 14.0
23.8146 13.0
23.835 21.0
23.8555 19.0
23.8759 16.0
23.8963 28.0
23.9168 13.0
23.9372 30.0
23.9576 31.0
23.9781 28.0
23.9985 24.0
24.0189 17.0
24.0394 18.0
24.0598 22.0
24.0802 17.0
24.1006 16.0
24.1211 19.0
24.1415 20.0
24.1619 24.0
24.1824 24.0
24.2028 22.0
24.2232 26.0
24.2437 18.0
24.2641 23.0
24.2845 19.0
24.305 21.0
24.3254 11.0
24.3458 12.0
24.3663 16.0
24.3867 22.0
24.4071 16.0
24.4276 20.0
24.448 21.0
24.4684 14.0
24.4889 23.0
24.5093 34.0
24.5297 31.0
24.5502 39.0
24.5706 36.0
24.591 58.0
24.6115 58.0
24.6319 52.0
24.6523 73.0
24.6728 41.0
24.6932 52.0
24.7136 28.0
24.7341 34.0
24.7545 36.0
24.7749 40.0
24.7954 28.0
24.8158 39.0
24.8362 20.0
24.8567 18.0
24.8771 21.0
24.8975 21.0
24.918 30.0
24.9384 29.0
24.9588 24.0
24.9793 22.0
24.9997 32.0
25.0201 28.0
25.0405 30.0
25.061 27.0
25.0814 24.0
25.1018 24.0
25.1223 20.0
25.1427 27.0
25.1631 32.0
25.1836 34.0
25.204 24.0
25.2244 27.0
25.2449 32.0
25.2653 26.0
25.2857 39.0
25.3062 29.0
25.3266 43.0
25.347 40.0
25.3675 41.0
25.3879 42.0
25.4083 46.0
25.4288 57.0
25.4492 62.0
25.4696 59.0
25.4901 89.0
25.5105 129.0
25.5309 118.0
25.5514 153.0
25.5718 211.0
25.5922 253.0
25.6127 485.0
25.6331 719.0
25.6535 1036.0
25.674 1378.0
25.6944 1633.0
25.7148 1664.0
25.7353 1416.0
25.7557 1181.0
25.7761 958.0
25.7966 600.0
25.817 390.0
25.8374 262.0
25.8579 164.0
25.8783 151.0
25.8987 144.0
25.9191 112.0
25.9396 123.0
25.96 83.0
25.9804 83.0
26.0009 76.0
26.0213 75.0
26.0417 45.0
26.0622 51.0
26.0826 47.0
26.103 48.0
26.1235 29.0
26.1439 47.0
26.1643 37.0
26.1848 36.0
26.2052 29.0
26.2256 35.0
26.2461 35.0
26.2665 33.0
26.2869 44.0
26.3074 50.0
26.3278 45.0
26.3482 51.0
26.3687 55.0
26.3891 42.0
26.4095 46.0
26.43 40.0
26.4504 27.0
26.4708 24.0
26.4913 24.0
26.5117 23.0
26.5321 20.0
26.5526 30.0
26.573 21.0
26.5934 28.0
26.6139 16.0
26.6343 16.0
26.6547 20.0
26.6752 26.0
26.6956 22.0
26.716 26.0
26.7365 21.0
26.7569 11.0
26.7773 19.0
26.7978 25.0
26.8182 21.0
26.8386 20.0
26.859 17.0
26.8795 22.0
26.8999 23.0
26.9203 12.0
26.9408 17.0
26.9612 14.0
26.9816 21.0
27.0021 19.0
27.0225 17.0
27.0429 16.0
27.0634 17.0
27.0838 22.0
27.1042 10.0
27.1247 20.0
27.1451 9.0
27.1655 12.0
27.186 16.0
27.2064 12.0
27.2268 16.0
27.2473 15.0
27.2677 11.0
27.2881 17.0
27.3086 16.0
27.329 14.0
27.3494 14.0
27.3699 15.0
27.3903 22.0
27.4107 18.0
27.4312 15.0
27.4516 19.0
27.472 16.0
27.4925 8.0
27.5129 19.0
27.5333 14.0
27.5538 18.0
27.5742 17.0
27.5946 28.0
27.6151 17.0
27.6355 17.0
27.6559 23.0
27.6764 15.0
27.6968 17.0
27.7172 20.0
27.7377 22.0
27.7581 25.0
27.7785 29.0
27.7989 36.0
27.8194 39.0
27.8398 49.0
27.8602 57.0
27.8807 63.0
27.9011 67.0
27.9215 63.0
27.942 43.0
27.9624 35.0
27.9828 41.0
28.0033 23.0
28.0237 28.0
28.0441 20.0
28.0646 23.0
28.085 19.0
28.1054 15.0
28.1259 13.0
28.1463 12.0
28.1667 10.0
28.1872 21.0
28.2076 22.0
28.228 21.0
28.2485 13.0
28.2689 13.0
28.2893 14.0
28.3098 22.0
28.3302 6.0
28.3506 18.0
28.3711 17.0
28.3915 19.0
28.4119 14.0
28.4324 18.0
28.4528 19.0
28.4732 15.0
28.4937 4.0
28.5141 13.0
28.5345 11.0
28.555 19.0
28.5754 7.0
28.5958 13.0
28.6163 18.0
28.6367 17.0
28.6571 14.0
28.6775 10.0
28.698 11.0
28.7184 10.0
28.7388 11.0
28.7593 11.0
28.7797 11.0
28.8001 19.0
28.8206 13.0
28.841 14.0
28.8614 13.0
28.8819 14.0
28.9023 18.0
28.9227 10.0
28.9432 11.0
28.9636 7.0
28.984 14.0
29.0045 17.0
29.0249 9.0
29.0453 21.0
29.0658 20.0
29.0862 15.0
29.1066 29.0
29.1271 14.0
29.1475 18.0
29.1679 14.0
29.1884 12.0
29.2088 21.0
29.2292 18.0
29.2497 15.0
29.2701 12.0
29.2905 14.0
29.311 13.0
29.3314 20.0
29.3518 14.0
29.3723 21.0
29.3927 12.0
29.4131 14.0
29.4336 20.0
29.454 9.0
29.4744 14.0
29.4949 14.0
29.5153 20.0
29.5357 13.0
29.5562 12.0
29.5766 16.0
29.597 21.0
29.6174 15.0
29.6379 15.0
29.6583 21.0
29.6787 12.0
29.6992 10.0
29.7196 16.0
29.74 18.0
29.7605 11.0
29.7809 16.0
29.8013 10.0
29.8218 15.0
29.8422 14.0
29.8626 20.0
29.8831 20.0
29.9035 13.0
29.9239 16.0
29.9444 21.0
29.9648 21.0
29.9852 21.0
30.0057 13.0
30.0261 17.0
30.0465 14.0
30.067 21.0
30.0874 13.0
30.1078 16.0
30.1283 21.0
30.1487 15.0
30.1691 26.0
30.1896 36.0
30.21 36.0
30.2304 43.0
30.2509 37.0
30.2713 40.0
30.2917 64.0
30.3122 113.0
30.3326 134.0
30.353 178.0
30.3735 242.0
30.3939 248.0
30.4143 269.0
30.4348 195.0
30.4552 176.0
30.4756 144.0
30.496 107.0
30.5165 70.0
30.5369 51.0
30.5573 40.0
30.5778 29.0
30.5982 38.0
30.6186 35.0
30.6391 27.0
30.6595 30.0
30.6799 30.0
30.7004 25.0
30.7208 33.0
30.7412 30.0
30.7617 29.0
30.7821 20.0
30.8025 16.0
30.823 14.0
30.8434 21.0
30.8638 17.0
30.8843 17.0
30.9047 17.0
30.9251 18.0
30.9456 17.0
30.966 11.0
30.9864 12.0
31.0069 10.0
31.0273 12.0
31.0477 19.0
31.0682 8.0
31.0886 14.0
31.109 14.0
31.1295 15.0
31.1499 10.0
31.1703 15.0
31.1908 12.0
31.2112 15.0
31.2316 12.0
31.2521 15.0
31.2725 15.0
31.2929 21.0
31.3134 14.0
31.3338 13.0
31.3542 13.0
31.3747 17.0
31.3951 13.0
31.4155 13.0
31.4359 10.0
31.4564 19.0
31.4768 16.0
31.4972 6.0
31.5177 14.0
31.5381 10.0
31.5585 10.0
31.579 9.0
31.5994 13.0
31.6198 14.0
31.6403 15.0
31.6607 17.0
31.6811 5.0
31.7016 9.0
31.722 10.0
31.7424 14.0
31.7629 12.0
31.7833 16.0
31.8037 13.0
31.8242 6.0
31.8446 15.0
31.865 11.0
31.8855 13.0
31.9059 21.0
31.9263 12.0
31.9468 16.0
31.9672 8.0
31.9876 21.0
32.0081 16.0
32.0285 17.0
32.0489 13.0
32.0694 13.0
32.0898 11.0
32.1102 15.0
32.1307 14.0
32.1511 14.0
32.1715 17.0
32.192 16.0
32.2124 13.0
32.2328 12.0
32.2533 11.0
32.2737 21.0
32.2941 14.0
32.3146 12.0
32.335 13.0
32.3554 12.0
32.3758 15.0
32.3963 18.0
32.4167 13.0
32.4371 11.0
32.4576 10.0
32.478 9.0
32.4984 13.0
32.5189 8.0
32.5393 6.0
32.5597 5.0
32.5802 19.0
32.6006 13.0
32.621 10.0
32.6415 15.0
32.6619 11.0
32.6823 10.0
32.7028 11.0
32.7232 14.0
32.7436 14.0
32.7641 16.0
32.7845 19.0
32.8049 20.0
32.8254 12.0
32.8458 11.0
32.8662 15.0
32.8867 10.0
32.9071 17.0
32.9275 21.0
32.948 13.0
32.9684 10.0
32.9888 14.0
33.0093 14.0
33.0297 12.0
33.0501 14.0
33.0706 9.0
33.091 14.0
33.1114 17.0
33.1319 14.0
33.1523 13.0
33.1727 18.0
33.1932 17.0
33.2136 24.0
33.234 14.0
33.2544 22.0
33.2749 23.0
33.2953 31.0
33.3157 38.0
33.3362 57.0
33.3566 54.0
33.377 43.0
33.3975 40.0
33.4179 61.0
33.4383 60.0
33.4588 48.0
33.4792 45.0
33.4996 26.0
33.5201 28.0
33.5405 38.0
33.5609 19.0
33.5814 26.0
33.6018 22.0
33.6222 22.0
33.6427 18.0
33.6631 19.0
33.6835 15.0
33.704 17.0
33.7244 13.0
33.7448 11.0
33.7653 18.0
33.7857 16.0
33.8061 16.0
33.8266 20.0
33.847 14.0
33.8674 15.0
33.8879 11.0
33.9083 10.0
33.9287 8.0
33.9492 10.0
33.9696 15.0
33.99 15.0
34.0105 16.0
34.0309 12.0
34.0513 8.0
34.0718 18.0
34.0922 18.0
34.1126 14.0
34.1331 16.0
34.1535 11.0
34.1739 14.0
34.1943 11.0
34.2148 19.0
34.2352 11.0
34.2556 15.0
34.2761 16.0
34.2965 10.0
34.3169 22.0
34.3374 17.0
34.3578 17.0
34.3782 19.0
34.3987 22.0
34.4191 24.0
34.4395 27.0
34.46 29.0
34.4804 38.0
34.5008 60.0
34.5213 51.0
34.5417 89.0
34.5621 96.0
34.5826 107.0
34.603 71.0
34.6234 87.0
34.6439 65.0
34.6643 76.0
34.6847 47.0
34.7052 51.0
34.7256 52.0
34.746 64.0
34.7665 91.0
34.7869 104.0
34.8073 119.0
34.8278 105.0
34.8482 110.0
34.8686 82.0
34.8891 71.0
34.9095 69.0
34.9299 60.0
34.9504 53.0
34.9708 44.0
34.9912 37.0
35.0117 31.0
35.0321 35.0
35.0525 38.0
35.0729 35.0
35.0934 26.0
35.1138 24.0
35.1342 22.0
35.1547 22.0
35.1751 13.0
35.1955 18.0
35.216 26.0
35.2364 22.0
35.2568 23.0
35.2773 22.0
35.2977 16.0
35.3181 16.0
35.3386 19.0
35.359 23.0
35.3794 30.0
35.3999 37.0
35.4203 31.0
35.4407 32.0
35.4612 40.0
35.4816 43.0
35.502 70.0
35.5225 111.0
35.5429 124.0
35.5633 181.0
35.5838 150.0
35.6042 133.0
35.6246 113.0
35.6451 113.0
35.6655 107.0
35.6859 81.0
35.7064 39.0
35.7268 44.0
35.7472 40.0
35.7677 31.0
35.7881 29.0
35.8085 24.0
35.829 20.0
35.8494 24.0
35.8698 25.0
35.8903 15.0
35.9107 20.0
35.9311 17.0
35.9516 15.0
35.972 17.0
35.9924 10.0
36.0128 15.0
36.0333 16.0
36.0537 14.0
36.0741 9.0
36.0946 9.0
36.115 12.0
36.1354 22.0
36.1559 14.0
36.1763 13.0
36.1967 9.0
36.2172 12.0
36.2376 18.0
36.258 21.0
36.2785 14.0
36.2989 14.0
36.3193 19.0
36.3398 14.0
36.3602 15.0
36.3806 11.0
36.4011 18.0
36.4215 18.0
36.4419 25.0
36.4624 21.0
36.4828 15.0
36.5032 14.0
36.5237 18.0
36.5441 32.0
36.5645 29.0
36.585 31.0
36.6054 17.0
36.6258 18.0
36.6463 13.0
36.6667 22.0
36.6871 15.0
36.7076 18.0
36.728 15.0
36.7484 17.0
36.7689 20.0
36.7893 19.0
36.8097 18.0
36.8302 11.0
36.8506 20.0
36.871 22.0
36.8915 10.0
36.9119 16.0
36.9323 21.0
36.9527 15.0
36.9732 11.0
36.9936 12.0
37.014 13.0
37.0345 14.0
37.0549 17.0
37.0753 16.0
37.0958 20.0
37.1162 38.0
37.1366 24.0
37.1571 32.0
37.1775 37.0
37.1979 20.0
37.2184 48.0
37.2388 39.0
37.2592 42.0
37.2797 68.0
37.3001 92.0
37.3205 90.0
37.341 103.0
37.3614 73.0
37.3818 77.0
37.4023 89.0
37.4227 64.0
37.4431 76.0
37.4636 51.0
37.484 45.0
37.5044 31.0
37.5249 25.0
37.5453 30.0
37.5657 27.0
37.5862 29.0
37.6066 34.0
37.627 26.0
37.6475 29.0
37.6679 27.0
37.6883 18.0
37.7088 23.0
37.7292 19.0
37.7496 19.0
37.7701 24.0
37.7905 23.0
37.8109 37.0
37.8313 41.0
37.8518 36.0
37.8722 38.0
37.8926 42.0
37.9131 43.0
37.9335 49.0
37.9539 29.0
37.9744 57.0
37.9948 56.0
38.0152 62.0
38.0357 79.0
38.0561 99.0
38.0765 121.0
38.097 162.0
38.1174 251.0
38.1378 344.0
38.1583 391.0
38.1787 480.0
38.1991 515.0
38.2196 458.0
38.24 397.0
38.2604 362.0
38.2809 324.0
38.3013 278.0
38.3217 257.0
38.3422 164.0
38.3626 144.0
38.383 137.0
38.4035 105.0
38.4239 91.0
38.4443 70.0
38.4648 66.0
38.4852 72.0
38.5056 47.0
38.5261 33.0
38.5465 43.0
38.5669 32.0
38.5874 31.0
38.6078 30.0
38.6282 33.0
38.6487 21.0
38.6691 30.0
38.6895 31.0
38.71 39.0
38.7304 25.0
38.7508 34.0
38.7712 37.0
38.7917 38.0
38.8121 41.0
38.8325 47.0
38.853 44.0
38.8734 57.0
38.8938 69.0
38.9143 88.0
38.9347 103.0
38.9551 112.0
38.9756 106.0
38.996 71.0
39.0164 74.0
39.0369 85.0
39.0573 69.0
39.0777 53.0
39.0982 36.0
39.1186 28.0
39.139 30.0
39.1595 26.0
39.1799 24.0
39.2003 24.0
39.2208 22.0
39.2412 20.0
39.2616 19.0
39.2821 20.0
39.3025 13.0
39.3229 12.0
39.3434 17.0
39.3638 12.0
39.3842 23.0
39.4047 19.0
39.4251 20.0
39.4455 18.0
39.466 8.0
39.4864 20.0
39.5068 13.0
39.5273 21.0
39.5477 17.0
39.5681 17.0
39.5886 16.0
39.609 20.0
39.6294 10.0
39.6498 9.0
39.6703 15.0
39.6907 10.0
39.7111 17.0
39.7316 14.0
39.752 11.0
39.7724 13.0
39.7929 19.0
39.8133 14.0
39.8337 18.0
39.8542 22.0
39.8746 23.0
39.895 9.0
39.9155 21.0
39.9359 32.0
39.9563 36.0
39.9768 22.0
39.9972 35.0
40.0176 45.0
40.0381 32.0
40.0585 69.0
40.0789 61.0
40.0994 115.0
40.1198 138.0
40.1402 113.0
40.1607 95.0
40.1811 82.0
40.2015 78.0
40.222 79.0
40.2424 69.0
40.2628 69.0
40.2833 37.0
40.3037 25.0
40.3241 23.0
40.3446 33.0
40.365 22.0
40.3854 33.0
40.4059 21.0
40.4263 23.0
40.4467 17.0
40.4672 16.0
40.4876 14.0
40.508 23.0
40.5285 13.0
40.5489 16.0
40.5693 9.0
40.5897 11.0
40.6102 15.0
40.6306 15.0
40.651 14.0
40.6715 5.0
40.6919 10.0
40.7123 18.0
40.7328 14.0
40.7532 8.0
40.7736 12.0
40.7941 15.0
40.8145 12.0
40.8349 16.0
40.8554 7.0
40.8758 14.0
40.8962 13.0
40.9167 11.0
40.9371 10.0
40.9575 7.0
40.978 14.0
40.9984 7.0
41.0188 10.0
41.0393 6.0
41.0597 10.0
41.0801 17.0
41.1006 13.0
41.121 15.0
41.1414 9.0
41.1619 14.0
41.1823 11.0
41.2027 13.0
41.2232 11.0
41.2436 16.0
41.264 13.0
41.2845 12.0
41.3049 17.0
41.3253 16.0
41.3458 16.0
41.3662 19.0
41.3866 25.0
41.4071 42.0
41.4275 49.0
41.4479 49.0
41.4684 78.0
41.4888 75.0
41.5092 70.0
41.5296 72.0
41.5501 62.0
41.5705 70.0
41.5909 53.0
41.6114 56.0
41.6318 39.0
41.6522 43.0
41.6727 29.0
41.6931 34.0
41.7135 37.0
41.734 41.0
41.7544 39.0
41.7748 49.0
41.7953 68.0
41.8157 73.0
41.8361 98.0
41.8566 106.0
41.877 87.0
41.8974 72.0
41.9179 62.0
41.9383 68.0
41.9587 63.0
41.9792 53.0
41.9996 48.0
42.02 35.0
42.0405 27.0
42.0609 25.0
42.0813 20.0
42.1018 21.0
42.1222 27.0
42.1426 20.0
42.1631 15.0
42.1835 14.0
42.2039 13.0
42.2244 9.0
42.2448 16.0
42.2652 18.0
42.2857 14.0
42.3061 8.0
42.3265 15.0
42.347 5.0
42.3674 7.0
42.3878 16.0
42.4082 11.0
42.4287 15.0
42.4491 13.0
42.4695 15.0
42.49 8.0
42.5104 15.0
42.5308 13.0
42.5513 13.0
42.5717 12.0
42.5921 17.0
42.6126 11.0
42.633 14.0
42.6534 14.0
42.6739 17.0
42.6943 17.0
42.7147 22.0
42.7352 25.0
42.7556 22.0
42.776 14.0
42.7965 18.0
42.8169 23.0
42.8373 22.0
42.8578 13.0
42.8782 12.0
42.8986 14.0
42.9191 11.0
42.9395 17.0
42.9599 15.0
42.9804 13.0
43.0008 15.0
43.0212 9.0
43.0417 11.0
43.0621 26.0
43.0825 18.0
43.103 16.0
43.1234 10.0
43.1438 21.0
43.1643 15.0
43.1847 11.0
43.2051 13.0
43.2256 9.0
43.246 9.0
43.2664 8.0
43.2869 13.0
43.3073 22.0
43.3277 11.0
43.3481 18.0
43.3686 10.0
43.389 16.0
43.4094 12.0
43.4299 11.0
43.4503 7.0
43.4707 9.0
43.4912 14.0
43.5116 12.0
43.532 11.0
43.5525 10.0
43.5729 11.0
43.5933 12.0
43.6138 11.0
43.6342 9.0
43.6546 12.0
43.6751 4.0
43.6955 12.0
43.7159 12.0
43.7364 16.0
43.7568 10.0
43.7772 9.0
43.7977 7.0
43.8181 5.0
43.8385 5.0
43.859 7.0
43.8794 15.0
43.8998 12.0
43.9203 8.0
43.9407 11.0
43.9611 11.0
43.9816 7.0
44.002 9.0
44.0224 14.0
44.0429 16.0
44.0633 11.0
44.0837 7.0
44.1042 9.0
44.1246 7.0
44.145 12.0
44.1655 11.0
44.1859 10.0
44.2063 8.0
44.2267 13.0
44.2472 13.0
44.2676 19.0
44.288 9.0
44.3085 10.0
44.3289 8.0
44.3493 9.0
44.3698 6.0
44.3902 8.0
44.4106 11.0
44.4311 4.0
44.4515 17.0
44.4719 11.0
44.4924 10.0
44.5128 11.0
44.5332 11.0
44.5537 11.0
44.5741 15.0
44.5945 8.0
44.615 11.0
44.6354 15.0
44.6558 11.0
44.6763 15.0
44.6967 16.0
44.7171 23.0
44.7376 19.0
44.758 27.0
44.7784 32.0
44.7989 37.0
44.8193 41.0
44.8397 32.0
44.8602 22.0
44.8806 24.0
44.901 28.0
44.9215 30.0
44.9419 17.0
44.9623 18.0
44.9828 15.0
45.0032 14.0
45.0236 9.0
45.0441 15.0
45.0645 11.0
45.0849 15.0
45.1054 11.0
45.1258 13.0
45.1462 11.0
45.1666 14.0
45.1871 5.0
45.2075 9.0
45.2279 12.0
45.2484 12.0
45.2688 5.0
45.2892 8.0
45.3097 7.0
45.3301 7.0
45.3505 7.0
45.371 10.0
45.3914 9.0
45.4118 10.0
45.4323 6.0
45.4527 19.0
45.4731 15.0
45.4936 8.0
45.514 8.0
45.5344 6.0
45.5549 6.0
45.5753 5.0
45.5957 8.0
45.6162 17.0
45.6366 11.0
45.657 13.0
45.6775 4.0
45.6979 16.0
45.7183 4.0
45.7388 10.0
45.7592 10.0
45.7796 8.0
45.8001 5.0
45.8205 11.0
45.8409 7.0
45.8614 11.0
45.8818 9.0
45.9022 12.0
45.9227 10.0
45.9431 11.0
45.9635 11.0
45.984 13.0
46.0044 10.0
46.0248 9.0
46.0453 9.0
46.0657 22.0
46.0861 13.0
46.1065 11.0
46.127 16.0
46.1474 10.0
46.1678 11.0
46.1883 7.0
46.2087 17.0
46.2291 27.0
46.2496 19.0
46.27 10.0
46.2904 18.0
46.3109 20.0
46.3313 24.0
46.3517 11.0
46.3722 15.0
46.3926 15.0
46.413 12.0
46.4335 14.0
46.4539 7.0
46.4743 7.0
46.4948 15.0
46.5152 15.0
46.5356 17.0
46.5561 12.0
46.5765 19.0
46.5969 20.0
46.6174 25.0
46.6378 24.0
46.6582 31.0
46.6787 28.0
46.6991 38.0
46.7195 29.0
46.74 29.0
46.7604 33.0
46.7808 23.0
46.8013 33.0
46.8217 51.0
46.8421 58.0
46.8626 67.0
46.883 77.0
46.9034 69.0
46.9239 57.0
46.9443 38.0
46.9647 43.0
46.9851 35.0
47.0056 41.0
47.026 45.0
47.0464 29.0
47.0669 24.0
47.0873 23.0
47.1077 24.0
47.1282 24.0
47.1486 17.0
47.169 15.0
47.1895 24.0
47.2099 32.0
47.2303 23.0
47.2508 22.0
47.2712 31.0
47.2916 22.0
47.3121 27.0
47.3325 24.0
47.3529 16.0
47.3734 18.0
47.3938 16.0
47.4142 17.0
47.4347 22.0
47.4551 19.0
47.4755 13.0
47.496 12.0
47.5164 13.0
47.5368 9.0
47.5573 10.0
47.5777 17.0
47.5981 11.0
47.6186 10.0
47.639 10.0
47.6594 14.0
47.6799 16.0
47.7003 7.0
47.7207 11.0
47.7412 12.0
47.7616 16.0
47.782 14.0
47.8025 15.0
47.8229 9.0
47.8433 10.0
47.8638 15.0
47.8842 16.0
47.9046 15.0
47.925 16.0
47.9455 10.0
47.9659 16.0
47.9863 18.0
48.0068 15.0
48.0272 15.0
48.0476 19.0
48.0681 25.0
48.0885 23.0
48.1089 35.0
48.1294 30.0
48.1498 39.0
48.1702 32.0
48.1907 44.0
48.2111 38.0
48.2315 49.0
48.252 42.0
48.2724 60.0
48.2928 63.0
48.3133 91.0
48.3337 133.0
48.3541 210.0
48.3746 282.0
48.395 402.0
48.4154 428.0
48.4359 388.0
48.4563 319.0
48.4767 255.0
48.4972 273.0
48.5176 274.0
48.538 271.0
48.5585 299.0
48.5789 229.0
48.5993 179.0
48.6198 127.0
48.6402 116.0
48.6606 116.0
48.6811 73.0
48.7015 75.0
48.7219 61.0
48.7424 68.0
48.7628 39.0
48.7832 38.0
48.8036 28.0
48.8241 27.0
48.8445 23.0
48.8649 25.0
48.8854 18.0
48.9058 18.0
48.9262 20.0
48.9467 19.0
48.9671 21.0
48.9875 18.0
49.008 17.0
49.0284 18.0
49.0488 13.0
49.0693 13.0
49.0897 10.0
49.1101 10.0
49.1306 15.0
49.151 24.0
49.1714 13.0
49.1919 11.0
49.2123 13.0
49.2327 6.0
49.2532 12.0
49.2736 10.0
49.294 8.0
49.3145 9.0
49.3349 10.0
49.3553 18.0
49.3758 11.0
49.3962 9.0
49.4166 13.0
49.4371 12.0
49.4575 14.0
49.4779 7.0
49.4984 15.0
49.5188 14.0
49.5392 10.0
49.5597 7.0
49.5801 9.0
49.6005 13.0
49.621 7.0
49.6414 17.0
49.6618 9.0
49.6823 11.0
49.7027 8.0
49.7231 11.0
49.7435 9.0
49.764 17.0
49.7844 11.0
49.8048 13.0
49.8253 8.0
49.8457 15.0
49.8661 11.0
49.8866 9.0
49.907 7.0
49.9274 6.0
49.9479 10.0
49.9683 8.0
49.9887 8.0
50.0092 13.0
50.0296 12.0
50.05 5.0
50.0705 4.0
50.0909 8.0
50.1113 9.0
50.1318 8.0
50.1522 19.0
50.1726 6.0
50.1931 4.0
50.2135 12.0
50.2339 15.0
50.2544 6.0
50.2748 5.0
50.2952 12.0
50.3157 13.0
50.3361 9.0
50.3565 11.0
50.377 10.0
50.3974 11.0
50.4178 13.0
50.4383 7.0
50.4587 10.0
50.4791 6.0
50.4996 7.0
50.52 13.0
50.5404 8.0
50.5609 14.0
50.5813 9.0
50.6017 7.0
50.6221 7.0
50.6426 10.0
50.663 11.0
50.6834 6.0
50.7039 10.0
50.7243 8.0
50.7447 12.0
50.7652 8.0
50.7856 13.0
50.806 8.0
50.8265 11.0
50.8469 11.0
50.8673 9.0
50.8878 10.0
50.9082 12.0
50.9286 5.0
50.9491 8.0
50.9695 11.0
50.9899 7.0
51.0104 10.0
51.0308 12.0
51.0512 16.0
51.0717 12.0
51.0921 16.0
51.1125 14.0
51.133 11.0
51.1534 9.0
51.1738 11.0
51.1943 15.0
51.2147 12.0
51.2351 12.0
51.2556 15.0
51.276 17.0
51.2964 20.0
51.3169 8.0
51.3373 18.0
51.3577 13.0
51.3782 10.0
51.3986 11.0
51.419 4.0
51.4395 10.0
51.4599 8.0
51.4803 7.0
51.5008 10.0
51.5212 11.0
51.5416 8.0
51.562 7.0
51.5825 18.0
51.6029 10.0
51.6233 8.0
51.6438 6.0
51.6642 15.0
51.6846 8.0
51.7051 4.0
51.7255 12.0
51.7459 9.0
51.7664 13.0
51.7868 10.0
51.8072 13.0
51.8277 25.0
51.8481 25.0
51.8685 11.0
51.889 18.0
51.9094 16.0
51.9298 15.0
51.9503 8.0
51.9707 11.0
51.9911 14.0
52.0116 11.0
52.032 13.0
52.0524 14.0
52.0729 7.0
52.0933 9.0
52.1137 4.0
52.1342 11.0
52.1546 10.0
52.175 8.0
52.1955 5.0
52.2159 8.0
52.2363 6.0
52.2568 13.0
52.2772 7.0
52.2976 6.0
52.3181 10.0
52.3385 14.0
52.3589 10.0
52.3794 7.0
52.3998 3.0
52.4202 7.0
52.4407 12.0
52.4611 6.0
52.4815 20.0
52.5019 8.0
52.5224 11.0
52.5428 6.0
52.5632 9.0
52.5837 9.0
52.6041 8.0
52.6245 15.0
52.645 6.0
52.6654 14.0
52.6858 12.0
52.7063 16.0
52.7267 9.0
52.7471 8.0
52.7676 7.0
52.788 8.0
52.8084 9.0
52.8289 5.0
52.8493 11.0
52.8697 21.0
52.8902 22.0
52.9106 16.0
52.931 19.0
52.9515 19.0
52.9719 15.0
52.9923 23.0
53.0128 23.0
53.0332 14.0
53.0536 9.0
53.0741 14.0
53.0945 12.0
53.1149 11.0
53.1354 7.0
53.1558 12.0
53.1762 14.0
53.1967 10.0
53.2171 12.0
53.2375 6.0
53.258 16.0
53.2784 18.0
53.2988 7.0
53.3193 13.0
53.3397 12.0
53.3601 13.0
53.3805 12.0
53.401 24.0
53.4214 20.0
53.4418 18.0
53.4623 14.0
53.4827 14.0
53.5031 20.0
53.5236 19.0
53.544 26.0
53.5644 19.0
53.5849 20.0
53.6053 16.0
53.6257 24.0
53.6462 15.0
53.6666 26.0
53.687 27.0
53.7075 29.0
53.7279 33.0
53.7483 39.0
53.7688 42.0
53.7892 41.0
53.8096 45.0
53.8301 46.0
53.8505 34.0
53.8709 35.0
53.8914 42.0
53.9118 34.0
53.9322 45.0
53.9527 40.0
53.9731 37.0
53.9935 41.0
54.014 45.0
54.0344 43.0
54.0548 46.0
54.0753 48.0
54.0957 51.0
54.1161 45.0
54.1366 67.0
54.157 83.0
54.1774 117.0
54.1979 162.0
54.2183 234.0
54.2387 234.0
54.2592 257.0
54.2796 188.0
54.3 158.0
54.3204 155.0
54.3409 135.0
54.3613 138.0
54.3817 155.0
54.4022 145.0
54.4226 113.0
54.443 84.0
54.4635 82.0
54.4839 51.0
54.5043 43.0
54.5248 37.0
54.5452 35.0
54.5656 20.0
54.5861 35.0
54.6065 23.0
54.6269 26.0
54.6474 27.0
54.6678 24.0
54.6882 35.0
54.7087 33.0
54.7291 29.0
54.7495 35.0
54.77 21.0
54.7904 22.0
54.8108 27.0
54.8313 28.0
54.8517 23.0
54.8721 14.0
54.8926 26.0
54.913 39.0
54.9334 28.0
54.9539 23.0
54.9743 22.0
54.9947 27.0
55.0152 29.0
55.0356 25.0
55.056 26.0
55.0765 26.0
55.0969 27.0
55.1173 32.0
55.1378 24.0
55.1582 22.0
55.1786 32.0
55.199 31.0
55.2195 34.0
55.2399 41.0
55.2603 38.0
55.2808 44.0
55.3012 38.0
55.3216 60.0
55.3421 82.0
55.3625 111.0
55.3829 180.0
55.4034 227.0
55.4238 268.0
55.4442 232.0
55.4647 203.0
55.4851 141.0
55.5055 108.0
55.526 144.0
55.5464 128.0
55.5668 133.0
55.5873 159.0
55.6077 117.0
55.6281 101.0
55.6486 65.0
55.669 58.0
55.6894 44.0
55.7099 28.0
55.7303 35.0
55.7507 24.0
55.7712 19.0
55.7916 25.0
55.812 22.0
55.8325 33.0
55.8529 20.0
55.8733 15.0
55.8938 19.0
55.9142 15.0
55.9346 18.0
55.9551 13.0
55.9755 12.0
55.9959 15.0
56.0164 19.0
56.0368 22.0
56.0572 15.0
56.0777 15.0
56.0981 14.0
56.1185 16.0
56.1389 15.0
56.1594 9.0
56.1798 7.0
56.2002 8.0
56.2207 13.0
56.2411 13.0
56.2615 17.0
56.282 11.0
56.3024 13.0
56.3228 6.0
56.3433 13.0
56.3637 15.0
56.3841 8.0
56.4046 15.0
56.425 10.0
56.4454 15.0
56.4659 15.0
56.4863 16.0
56.5067 13.0
56.5272 21.0
56.5476 22.0
56.568 25.0
56.5885 33.0
56.6089 27.0
56.6293 27.0
56.6498 23.0
56.6702 18.0
56.6906 22.0
56.7111 19.0
56.7315 28.0
56.7519 21.0
56.7724 7.0
56.7928 11.0
56.8132 9.0
56.8337 14.0
56.8541 22.0
56.8745 12.0
56.895 16.0
56.9154 12.0
56.9358 15.0
56.9563 12.0
56.9767 10.0
56.9971 14.0
57.0176 14.0
57.038 14.0
57.0584 16.0
57.0788 16.0
57.0993 12.0
57.1197 22.0
57.1401 19.0
57.1606 17.0
57.181 19.0
57.2014 19.0
57.2219 17.0
57.2423 14.0
57.2627 16.0
57.2832 6.0
57.3036 15.0
57.324 16.0
57.3445 14.0
57.3649 15.0
57.3853 8.0
57.4058 6.0
57.4262 11.0
57.4466 14.0
57.4671 2.0
57.4875 6.0
57.5079 14.0
57.5284 10.0
57.5488 6.0
57.5692 10.0
57.5897 9.0
57.6101 9.0
57.6305 8.0
57.651 2.0
57.6714 8.0
57.6918 9.0
57.7123 6.0
57.7327 8.0
57.7531 7.0
57.7736 7.0
57.794 14.0
57.8144 7.0
57.8349 11.0
57.8553 12.0
57.8757 13.0
57.8962 4.0
57.9166 5.0
57.937 11.0
57.9574 10.0
57.9779 9.0
57.9983 11.0
58.0187 9.0
58.0392 8.0
58.0596 8.0
58.08 11.0
58.1005 12.0
58.1209 13.0
58.1413 6.0
58.1618 11.0
58.1822 15.0
58.2026 10.0
58.2231 15.0
58.2435 18.0
58.2639 8.0
58.2844 11.0
58.3048 7.0
58.3252 8.0
58.3457 7.0
58.3661 9.0
58.3865 11.0
58.407 7.0
58.4274 8.0
58.4478 5.0
58.4683 9.0
58.4887 15.0
58.5091 15.0
58.5296 14.0
58.55 11.0
58.5704 19.0
58.5909 12.0
58.6113 19.0
58.6317 14.0
58.6522 12.0
58.6726 14.0
58.693 10.0
58.7135 17.0
58.7339 12.0
58.7543 11.0
58.7748 20.0
58.7952 14.0
58.8156 19.0
58.8361 16.0
58.8565 12.0
58.8769 16.0
58.8973 15.0
58.9178 14.0
58.9382 19.0
58.9586 10.0
58.9791 16.0
58.9995 23.0
59.0199 9.0
59.0404 16.0
59.0608 13.0
59.0812 15.0
59.1017 13.0
59.1221 15.0
59.1425 13.0
59.163 17.0
59.1834 15.0
59.2038 11.0
59.2243 11.0
59.2447 24.0
59.2651 32.0
59.2856 26.0
59.306 22.0
59.3264 19.0
59.3469 20.0
59.3673 17.0
59.3877 15.0
59.4082 18.0
59.4286 16.0
59.449 13.0
59.4695 11.0
59.4899 21.0
59.5103 11.0
59.5308 19.0
59.5512 14.0
59.5716 10.0
59.5921 8.0
59.6125 13.0
59.6329 4.0
59.6534 14.0
59.6738 14.0
59.6942 9.0
59.7147 10.0
59.7351 12.0
59.7555 8.0
59.7759 11.0
59.7964 6.0
59.8168 11.0
59.8372 10.0
59.8577 11.0
59.8781 9.0
59.8985 10.0
59.919 10.0
59.9394 9.0
59.9598 8.0
59.9803 12.0
60.0007 3.0
60.0211 11.0
60.0416 17.0
60.062 19.0
60.0824 15.0
60.1029 12.0
60.1233 14.0
60.1437 20.0
60.1642 11.0
60.1846 11.0
60.205 11.0
60.2255 12.0
60.2459 11.0
60.2663 8.0
60.2868 10.0
60.3072 9.0
60.3276 12.0
60.3481 9.0
60.3685 10.0
60.3889 12.0
60.4094 14.0
60.4298 7.0
60.4502 7.0
60.4707 10.0
60.4911 10.0
60.5115 10.0
60.532 13.0
60.5524 3.0
60.5728 12.0
60.5933 6.0
60.6137 16.0
60.6341 19.0
60.6546 9.0
60.675 15.0
60.6954 15.0
60.7158 14.0
60.7363 15.0
60.7567 13.0
60.7771 19.0
60.7976 17.0
60.818 22.0
60.8384 14.0
60.8589 18.0
60.8793 19.0
60.8997 13.0
60.9202 15.0
60.9406 11.0
60.961 22.0
60.9815 16.0
61.0019 10.0
61.0223 19.0
61.0428 11.0
61.0632 15.0
61.0836 11.0
61.1041 17.0
61.1245 13.0
61.1449 13.0
61.1654 15.0
61.1858 9.0
61.2062 4.0
61.2267 11.0
61.2471 7.0
61.2675 8.0
61.288 12.0
61.3084 7.0
61.3288 13.0
61.3493 12.0
61.3697 9.0
61.3901 7.0
61.4106 4.0
61.431 7.0
61.4514 12.0
61.4719 6.0
61.4923 4.0
61.5127 5.0
61.5332 8.0
61.5536 5.0
61.574 10.0
61.5945 10.0
61.6149 6.0
61.6353 10.0
61.6557 8.0
61.6762 7.0
61.6966 4.0
61.717 8.0
61.7375 11.0
61.7579 11.0
61.7783 10.0
61.7988 6.0
61.8192 13.0
61.8396 8.0
61.8601 5.0
61.8805 11.0
61.9009 11.0
61.9214 9.0
61.9418 14.0
61.9622 7.0
61.9827 14.0
62.0031 12.0
62.0235 11.0
62.044 13.0
62.0644 12.0
62.0848 11.0
62.1053 23.0
62.1257 26.0
62.1461 17.0
62.1666 30.0
62.187 26.0
62.2074 19.0
62.2279 20.0
62.2483 21.0
62.2687 20.0
62.2892 20.0
62.3096 22.0
62.33 25.0
62.3505 32.0
62.3709 35.0
62.3913 36.0
62.4118 48.0
62.4322 55.0
62.4526 55.0
62.4731 66.0
62.4935 44.0
62.5139 43.0
62.5343 28.0
62.5548 22.0
62.5752 27.0
62.5956 36.0
62.6161 37.0
62.6365 45.0
62.6569 40.0
62.6774 61.0
62.6978 49.0
62.7182 34.0
62.7387 42.0
62.7591 32.0
62.7795 34.0
62.8 38.0
62.8204 32.0
62.8408 32.0
62.8613 37.0
62.8817 58.0
62.9021 58.0
62.9226 70.0
62.943 59.0
62.9634 90.0
62.9839 131.0
63.0043 153.0
63.0247 174.0
63.0452 192.0
63.0656 134.0
63.086 110.0
63.1065 90.0
63.1269 72.0
63.1473 94.0
63.1678 121.0
63.1882 108.0
63.2086 107.0
63.2291 88.0
63.2495 80.0
63.2699 55.0
63.2904 40.0
63.3108 22.0
63.3312 11.0
63.3517 20.0
63.3721 23.0
63.3925 21.0
63.413 18.0
63.4334 13.0
63.4538 14.0
63.4742 21.0
63.4947 14.0
63.5151 16.0
63.5355 13.0
63.556 9.0
63.5764 4.0
63.5968 13.0
63.6173 15.0
63.6377 6.0
63.6581 14.0
63.6786 5.0
63.699 11.0
63.7194 9.0
63.7399 6.0
63.7603 9.0
63.7807 13.0
63.8012 6.0
63.8216 14.0
63.842 10.0
63.8625 13.0
63.8829 9.0
63.9033 13.0
63.9238 10.0
63.9442 10.0
63.9646 15.0
63.9851 18.0
64.0055 17.0
64.0259 17.0
64.0464 20.0
64.0668 14.0
64.0872 18.0
64.1077 18.0
64.1281 22.0
64.1485 18.0
64.169 15.0
64.1894 13.0
64.2098 17.0
64.2303 13.0
64.2507 12.0
64.2711 21.0
64.2916 9.0
64.312 12.0
64.3324 9.0
64.3528 12.0
64.3733 9.0
64.3937 12.0
64.4141 14.0
64.4346 7.0
64.455 5.0
64.4754 9.0
64.4959 5.0
64.5163 8.0
64.5367 9.0
64.5572 7.0
64.5776 8.0
64.598 8.0
64.6185 7.0
64.6389 9.0
64.6593 4.0
64.6798 6.0
64.7002 6.0
64.7206 5.0
64.7411 5.0
64.7615 8.0
64.7819 7.0
64.8024 5.0
64.8228 10.0
64.8432 15.0
64.8637 6.0
64.8841 6.0
64.9045 8.0
64.925 7.0
64.9454 7.0
64.9658 10.0
64.9863 8.0
65.0067 11.0
65.0271 8.0
65.0476 2.0
65.068 5.0
65.0884 9.0
65.1089 6.0
65.1293 4.0
65.1497 6.0
65.1702 7.0
65.1906 6.0
65.211 9.0
65.2315 9.0
65.2519 4.0
65.2723 7.0
65.2927 10.0
65.3132 9.0
65.3336 7.0
65.354 7.0
65.3745 9.0
65.3949 6.0
65.4153 6.0
65.4358 5.0
65.4562 9.0
65.4766 5.0
65.4971 11.0
65.5175 6.0
65.5379 12.0
65.5584 9.0
65.5788 6.0
65.5992 9.0
65.6197 10.0
65.6401 12.0
65.6605 10.0
65.681 7.0
65.7014 7.0
65.7218 10.0
65.7423 8.0
65.7627 7.0
65.7831 10.0
65.8036 2.0
65.824 9.0
65.8444 9.0
65.8649 11.0
65.8853 6.0
65.9057 9.0
65.9262 6.0
65.9466 7.0
65.967 8.0
65.9875 12.0
66.0079 12.0
66.0283 13.0
66.0488 13.0
66.0692 6.0
66.0896 8.0
66.1101 13.0
66.1305 12.0
66.1509 4.0
66.1714 7.0
66.1918 9.0
66.2122 9.0
66.2326 6.0
66.2531 5.0
66.2735 4.0
66.2939 5.0
66.3144 11.0
66.3348 7.0
66.3552 7.0
66.3757 10.0
66.3961 5.0
66.4165 3.0
66.437 5.0
66.4574 11.0
66.4778 8.0
66.4983 8.0
66.5187 10.0
66.5391 7.0
66.5596 8.0
66.58 13.0
66.6004 7.0
66.6209 9.0
66.6413 5.0
66.6617 10.0
66.6822 7.0
66.7026 8.0
66.723 6.0
66.7435 9.0
66.7639 4.0
66.7843 8.0
66.8048 6.0
66.8252 13.0
66.8456 7.0
66.8661 5.0
66.8865 7.0
66.9069 11.0
66.9274 5.0
66.9478 10.0
66.9682 6.0
66.9887 10.0
67.0091 9.0
67.0295 11.0
67.05 8.0
67.0704 11.0
67.0908 6.0
67.1112 11.0
67.1317 7.0
67.1521 5.0
67.1725 4.0
67.193 11.0
67.2134 7.0
67.2338 10.0
67.2543 6.0
67.2747 7.0
67.2951 9.0
67.3156 12.0
67.336 10.0
67.3564 7.0
67.3769 10.0
67.3973 14.0
67.4177 12.0
67.4382 9.0
67.4586 7.0
67.479 8.0
67.4995 12.0
67.5199 12.0
67.5403 12.0
67.5608 11.0
67.5812 14.0
67.6016 21.0
67.6221 18.0
67.6425 19.0
67.6629 12.0
67.6834 13.0
67.7038 12.0
67.7242 20.0
67.7447 13.0
67.7651 9.0
67.7855 9.0
67.806 14.0
67.8264 6.0
67.8468 10.0
67.8673 8.0
67.8877 5.0
67.9081 8.0
67.9286 15.0
67.949 9.0
67.9694 13.0
67.9899 9.0
68.0103 7.0
68.0307 7.0
68.0511 9.0
68.0716 7.0
68.092 3.0
68.1124 8.0
68.1329 16.0
68.1533 8.0
68.1737 4.0
68.1942 6.0
68.2146 9.0
68.235 12.0
68.2555 8.0
68.2759 14.0
68.2963 12.0
68.3168 5.0
68.3372 4.0
68.3576 9.0
68.3781 5.0
68.3985 12.0
68.4189 13.0
68.4394 14.0
68.4598 8.0
68.4802 5.0
68.5007 8.0
68.5211 6.0
68.5415 12.0
68.562 9.0
68.5824 7.0
68.6028 15.0
68.6233 14.0
68.6437 9.0
68.6641 5.0
68.6846 11.0
68.705 8.0
68.7254 9.0
68.7459 9.0
68.7663 9.0
68.7867 10.0
68.8072 18.0
68.8276 14.0
68.848 12.0
68.8685 19.0
68.8889 16.0
68.9093 16.0
68.9297 18.0
68.9502 18.0
68.9706 24.0
68.991 35.0
69.0115 38.0
69.0319 54.0
69.0523 65.0
69.0728 71.0
69.0932 72.0
69.1136 93.0
69.1341 67.0
69.1545 42.0
69.1749 51.0
69.1954 31.0
69.2158 37.0
69.2362 41.0
69.2567 39.0
69.2771 43.0
69.2975 49.0
69.318 31.0
69.3384 21.0
69.3588 19.0
69.3793 21.0
69.3997 19.0
69.4201 11.0
69.4406 17.0
69.461 7.0
69.4814 10.0
69.5019 15.0
69.5223 12.0
69.5427 10.0
69.5632 12.0
69.5836 10.0
69.604 8.0
69.6245 7.0
69.6449 10.0
69.6653 12.0
69.6858 10.0
69.7062 9.0
69.7266 6.0
69.7471 10.0
69.7675 7.0
69.7879 10.0
69.8084 12.0
69.8288 11.0
69.8492 6.0
69.8696 12.0
69.8901 13.0
69.9105 6.0
69.9309 11.0
69.9514 6.0
69.9718 9.0
69.9922 13.0
70.0127 10.0
70.0331 13.0
70.0535 9.0
70.074 14.0
70.0944 12.0
70.1148 15.0
70.1353 10.0
70.1557 6.0
70.1761 13.0
70.1966 7.0
70.217 7.0
70.2374 7.0
70.2579 14.0
70.2783 16.0
70.2987 15.0
70.3192 14.0
70.3396 13.0
70.36 10.0
70.3805 9.0
70.4009 12.0
70.4213 11.0
70.4418 12.0
70.4622 15.0
70.4826 16.0
70.5031 18.0
70.5235 43.0
70.5439 29.0
70.5644 55.0
70.5848 69.0
70.6052 87.0
70.6257 81.0
70.6461 78.0
70.6665 67.0
70.687 43.0
70.7074 46.0
70.7278 29.0
70.7483 34.0
70.7687 49.0
70.7891 35.0
70.8095 42.0
70.83 49.0
70.8504 57.0
70.8708 35.0
70.8913 35.0
70.9117 18.0
70.9321 31.0
70.9526 14.0
70.973 15.0
70.9934 8.0
71.0139 11.0
71.0343 7.0
71.0547 8.0
71.0752 14.0
71.0956 11.0
71.116 5.0
71.1365 11.0
71.1569 11.0
71.1773 8.0
71.1978 6.0
71.2182 11.0
71.2386 12.0
71.2591 9.0
71.2795 10.0
71.2999 6.0
71.3204 7.0
71.3408 6.0
71.3612 11.0
71.3817 4.0
71.4021 7.0
71.4225 5.0
71.443 10.0
71.4634 10.0
71.4838 8.0
71.5043 9.0
71.5247 4.0
71.5451 8.0
71.5656 10.0
71.586 6.0
71.6064 8.0
71.6269 10.0
71.6473 9.0
71.6677 10.0
71.6881 12.0
71.7086 11.0
71.729 6.0
71.7494 5.0
71.7699 8.0
71.7903 10.0
71.8107 8.0
71.8312 8.0
71.8516 15.0
71.872 7.0
71.8925 8.0
71.9129 8.0
71.9333 15.0
71.9538 6.0
71.9742 7.0
71.9946 7.0
72.0151 9.0
72.0355 7.0
72.0559 11.0
72.0764 11.0
72.0968 6.0
72.1172 5.0
72.1377 5.0
72.1581 9.0
72.1785 10.0
72.199 8.0
72.2194 12.0
72.2398 7.0
72.2603 16.0
72.2807 15.0
72.3011 9.0
72.3216 12.0
72.342 7.0
72.3624 10.0
72.3829 5.0
72.4033 9.0
72.4237 14.0
72.4442 10.0
72.4646 13.0
72.485 8.0
72.5055 8.0
72.5259 11.0
72.5463 21.0
72.5668 11.0
72.5872 11.0
72.6076 17.0
72.628 6.0
72.6485 14.0
72.6689 10.0
72.6893 9.0
72.7098 4.0
72.7302 9.0
72.7506 18.0
72.7711 10.0
72.7915 6.0
72.8119 9.0
72.8324 6.0
72.8528 10.0
72.8732 8.0
72.8937 4.0
72.9141 4.0
72.9345 10.0
72.955 7.0
72.9754 5.0
72.9958 7.0
73.0163 3.0
73.0367 11.0
73.0571 4.0
73.0776 4.0
73.098 5.0
73.1184 8.0
73.1389 3.0
73.1593 12.0
73.1797 10.0
73.2002 1.0
73.2206 9.0
73.241 5.0
73.2615 9.0
73.2819 14.0
73.3023 8.0
73.3228 14.0
73.3432 10.0
73.3636 9.0
73.3841 6.0
73.4045 17.0
73.4249 11.0
73.4454 11.0
73.4658 10.0
73.4862 11.0
73.5066 8.0
73.5271 9.0
73.5475 8.0
73.5679 13.0
73.5884 11.0
73.6088 15.0
73.6292 8.0
73.6497 9.0
73.6701 6.0
73.6905 9.0
73.711 4.0
73.7314 8.0
73.7518 8.0
73.7723 10.0
73.7927 7.0
73.8131 4.0
73.8336 7.0
73.854 6.0
73.8744 6.0
73.8949 8.0
73.9153 11.0
73.9357 5.0
73.9562 7.0
73.9766 10.0
73.997 4.0
74.0175 5.0
74.0379 8.0
74.0583 7.0
74.0788 6.0
74.0992 8.0
74.1196 6.0
74.1401 12.0
74.1605 1.0
74.1809 4.0
74.2014 5.0
74.2218 8.0
74.2422 10.0
74.2627 6.0
74.2831 9.0
74.3035 11.0
74.324 14.0
74.3444 16.0
74.3648 13.0
74.3853 18.0
74.4057 9.0
74.4261 10.0
74.4465 8.0
74.467 10.0
74.4874 5.0
74.5078 14.0
74.5283 21.0
74.5487 15.0
74.5691 11.0
74.5896 12.0
74.61 13.0
74.6304 23.0
74.6509 15.0
74.6713 20.0
74.6917 21.0
74.7122 16.0
74.7326 22.0
74.753 9.0
74.7735 11.0
74.7939 14.0
74.8143 16.0
74.8348 17.0
74.8552 10.0
74.8756 14.0
74.8961 11.0
74.9165 12.0
74.9369 14.0
74.9574 9.0
74.9778 10.0
74.9982 16.0
75.0187 7.0
75.0391 15.0
75.0595 16.0
75.08 11.0
75.1004 15.0
75.1208 15.0
75.1413 18.0
75.1617 17.0
75.1821 18.0
75.2026 21.0
75.223 33.0
75.2434 42.0
75.2639 37.0
75.2843 44.0
75.3047 87.0
75.3252 110.0
75.3456 128.0
75.366 118.0
75.3864 125.0
75.4069 96.0
75.4273 76.0
75.4477 53.0
75.4682 50.0
75.4886 38.0
75.509 48.0
75.5295 54.0
75.5499 59.0
75.5703 71.0
75.5908 66.0
75.6112 58.0
75.6316 43.0
75.6521 35.0
75.6725 27.0
75.6929 30.0
75.7134 22.0
75.7338 19.0
75.7542 5.0
75.7747 17.0
75.7951 16.0
75.8155 10.0
75.836 12.0
75.8564 11.0
75.8768 19.0
75.8973 9.0
75.9177 7.0
75.9381 11.0
75.9586 11.0
75.979 8.0
75.9994 12.0
76.0199 7.0
76.0403 7.0
76.0607 13.0
76.0812 8.0
76.1016 8.0
76.122 13.0
76.1425 13.0
76.1629 14.0
76.1833 11.0
76.2038 10.0
76.2242 12.0
76.2446 17.0
76.265 19.0
76.2855 19.0
76.3059 27.0
76.3263 39.0
76.3468 50.0
76.3672 45.0
76.3876 38.0
76.4081 33.0
76.4285 36.0
76.4489 21.0
76.4694 11.0
76.4898 15.0
76.5102 26.0
76.5307 21.0
76.5511 23.0
76.5715 28.0
76.592 23.0
76.6124 23.0
76.6328 20.0
76.6533 17.0
76.6737 11.0
76.6941 2.0
76.7146 8.0
76.735 6.0
76.7554 8.0
76.7759 10.0
76.7963 9.0
76.8167 8.0
76.8372 8.0
76.8576 6.0
76.878 7.0
76.8985 12.0
76.9189 5.0
76.9393 5.0
76.9598 4.0
76.9802 2.0
77.0006 5.0
77.0211 2.0
77.0415 10.0
77.0619 3.0
77.0824 4.0
77.1028 8.0
77.1232 10.0
77.1437 9.0
77.1641 11.0
77.1845 6.0
77.2049 11.0
77.2254 11.0
77.2458 9.0
77.2662 4.0
77.2867 7.0
77.3071 7.0
77.3275 8.0
77.348 8.0
77.3684 6.0
77.3888 2.0
77.4093 9.0
77.4297 3.0
77.4501 6.0
77.4706 7.0
77.491 8.0
77.5114 7.0
77.5319 4.0
77.5523 10.0
77.5727 5.0
77.5932 3.0
77.6136 4.0
77.634 7.0
77.6545 6.0
77.6749 7.0
77.6953 6.0
77.7158 8.0
77.7362 3.0
77.7566 5.0
77.7771 6.0
77.7975 3.0
77.8179 9.0
77.8384 9.0
77.8588 7.0
77.8792 5.0
77.8997 5.0
77.9201 12.0
77.9405 9.0
77.961 5.0
77.9814 7.0
78.0018 12.0
78.0223 4.0
78.0427 4.0
78.0631 8.0
78.0835 7.0
78.104 6.0
78.1244 7.0
78.1448 10.0
78.1653 4.0
78.1857 6.0
78.2061 7.0
78.2266 11.0
78.247 7.0
78.2674 9.0
78.2879 3.0
78.3083 4.0
78.3287 2.0
78.3492 6.0
78.3696 7.0
78.39 7.0
78.4105 4.0
78.4309 3.0
78.4513 7.0
78.4718 7.0
78.4922 12.0
78.5126 2.0
78.5331 6.0
78.5535 7.0
78.5739 8.0
78.5944 7.0
78.6148 3.0
78.6352 6.0
78.6557 5.0
78.6761 10.0
78.6965 10.0
78.717 3.0
78.7374 6.0
78.7578 4.0
78.7783 11.0
78.7987 10.0
78.8191 8.0
78.8396 7.0
78.86 17.0
78.8804 9.0
78.9009 4.0
78.9213 7.0
78.9417 8.0
78.9622 6.0
78.9826 5.0
79.003 6.0
79.0234 2.0
79.0439 9.0
79.0643 10.0
79.0847 10.0
79.1052 7.0
79.1256 14.0
79.146 8.0
79.1665 11.0
79.1869 7.0
79.2073 6.0
79.2278 10.0
79.2482 7.0
79.2686 3.0
79.2891 9.0
79.3095 4.0
79.3299 5.0
79.3504 3.0
79.3708 10.0
79.3912 7.0
79.4117 10.0
79.4321 11.0
79.4525 8.0
79.473 12.0
79.4934 11.0
79.5138 10.0
79.5343 4.0
79.5547 11.0
79.5751 10.0
79.5956 14.0
79.616 10.0
79.6364 11.0
79.6569 13.0
79.6773 8.0
79.6977 10.0
79.7182 9.0
79.7386 11.0
79.759 9.0
79.7795 4.0
79.7999 7.0
79.8203 6.0
79.8408 13.0
79.8612 4.0
79.8816 6.0
79.9021 12.0
79.9225 6.0
79.9429 8.0
79.9633 11.0
79.9838 8.0
80.0042 10.0
80.0246 12.0
80.0451 13.0
80.0655 10.0
80.0859 19.0
80.1064 13.0
80.1268 15.0
80.1472 23.0
80.1677 22.0
80.1881 10.0
80.2085 16.0
80.229 17.0
80.2494 9.0
80.2698 17.0
80.2903 13.0
80.3107 12.0
80.3311 15.0
80.3516 20.0
80.372 14.0
80.3924 19.0
80.4129 12.0
80.4333 4.0
80.4537 11.0
80.4742 13.0
80.4946 12.0
80.515 12.0
80.5355 13.0
80.5559 9.0
80.5763 14.0
80.5968 6.0
80.6172 8.0
80.6376 12.0
80.6581 11.0
80.6785 11.0
80.6989 12.0
80.7194 6.0
80.7398 9.0
80.7602 8.0
80.7807 7.0
80.8011 6.0
80.8215 5.0
80.8419 6.0
80.8624 8.0
80.8828 9.0
80.9032 9.0
80.9237 9.0
80.9441 7.0
80.9645 11.0
80.985 9.0
81.0054 6.0
81.0258 12.0
81.0463 7.0
81.0667 15.0
81.0871 9.0
81.1076 11.0
81.128 7.0
81.1484 11.0
81.1689 7.0
81.1893 8.0
81.2097 8.0
81.2302 8.0
81.2506 12.0
81.271 10.0
81.2915 7.0
81.3119 10.0
81.3323 4.0
81.3528 9.0
81.3732 7.0
81.3936 6.0
81.4141 3.0
81.4345 9.0
81.4549 8.0
81.4754 2.0
81.4958 7.0
81.5162 13.0
81.5367 8.0
81.5571 15.0
81.5775 5.0
81.598 8.0
81.6184 5.0
81.6388 3.0
81.6593 7.0
81.6797 11.0
81.7001 7.0
81.7206 7.0
81.741 9.0
81.7614 7.0
81.7818 5.0
81.8023 7.0
81.8227 7.0
81.8431 5.0
81.8636 5.0
81.884 4.0
81.9044 5.0
81.9249 7.0
81.9453 9.0
81.9657 5.0
81.9862 5.0
82.0066 13.0
82.027 16.0
82.0475 7.0
82.0679 10.0
82.0883 7.0
82.1088 8.0
82.1292 5.0
82.1496 10.0
82.1701 6.0
82.1905 9.0
82.2109 7.0
82.2314 7.0
82.2518 3.0
82.2722 11.0
82.2927 8.0
82.3131 10.0
82.3335 6.0
82.354 7.0
82.3744 8.0
82.3948 10.0
82.4153 8.0
82.4357 19.0
82.4561 15.0
82.4766 18.0
82.497 13.0
82.5174 11.0
82.5379 14.0
82.5583 17.0
82.5787 11.0
82.5992 14.0
82.6196 18.0
82.64 12.0
82.6604 17.0
82.6809 16.0
82.7013 15.0
82.7217 13.0
82.7422 18.0
82.7626 16.0
82.783 16.0
82.8035 17.0
82.8239 20.0
82.8443 28.0
82.8648 27.0
82.8852 33.0
82.9056 31.0
82.9261 48.0
82.9465 53.0
82.9669 74.0
82.9874 58.0
83.0078 58.0
83.0282 47.0
83.0487 39.0
83.0691 24.0
83.0895 32.0
83.11 28.0
83.1304 27.0
83.1508 27.0
83.1713 30.0
83.1917 26.0
83.2121 34.0
83.2326 38.0
83.253 35.0
83.2734 32.0
83.2939 25.0
83.3143 27.0
83.3347 25.0
83.3552 28.0
83.3756 22.0
83.396 25.0
83.4165 36.0
83.4369 31.0
83.4573 41.0
83.4778 30.0
83.4982 26.0
83.5186 17.0
83.5391 22.0
83.5595 20.0
83.5799 25.0
83.6003 16.0
83.6208 21.0
83.6412 13.0
83.6616 16.0
83.6821 25.0
83.7025 32.0
83.7229 15.0
83.7434 9.0
83.7638 18.0
83.7842 13.0
83.8047 12.0
83.8251 7.0
83.8455 9.0
83.866 8.0
83.8864 19.0
83.9068 13.0
83.9273 8.0
83.9477 14.0
83.9681 10.0
83.9886 10.0
84.009 11.0
84.0294 9.0
84.0499 5.0
84.0703 3.0
84.0907 4.0
84.1112 6.0
84.1316 6.0
84.152 8.0
84.1725 4.0
84.1929 3.0
84.2133 7.0
84.2338 5.0
84.2542 3.0
84.2746 7.0
84.2951 10.0
84.3155 6.0
84.3359 4.0
84.3564 7.0
84.3768 7.0
84.3972 7.0
84.4177 6.0
84.4381 5.0
84.4585 3.0
84.4789 5.0
84.4994 6.0
84.5198 7.0
84.5402 8.0
84.5607 7.0
84.5811 8.0
84.6015 4.0
84.622 12.0
84.6424 6.0
84.6628 2.0
84.6833 5.0
84.7037 7.0
84.7241 5.0
84.7446 11.0
84.765 2.0
84.7854 8.0
84.8059 5.0
84.8263 9.0
84.8467 9.0
84.8672 9.0
84.8876 7.0
84.908 10.0
84.9285 7.0
84.9489 4.0
84.9693 6.0
84.9898 5.0
85.0102 6.0
85.0306 9.0
85.0511 7.0
85.0715 8.0
85.0919 10.0
85.1124 6.0
85.1328 7.0
85.1532 12.0
85.1737 6.0
85.1941 9.0
85.2145 6.0
85.235 6.0
85.2554 7.0
85.2758 2.0
85.2963 4.0
85.3167 7.0
85.3371 9.0
85.3576 5.0
85.378 7.0
85.3984 6.0
85.4188 11.0
85.4393 8.0
85.4597 7.0
85.4801 5.0
85.5006 8.0
85.521 12.0
85.5414 3.0
85.5619 7.0
85.5823 5.0
85.6027 3.0
85.6232 7.0
85.6436 6.0
85.664 3.0
85.6845 4.0
85.7049 9.0
85.7253 10.0
85.7458 8.0
85.7662 11.0
85.7866 7.0
85.8071 3.0
85.8275 8.0
85.8479 5.0
85.8684 7.0
85.8888 8.0
85.9092 9.0
85.9297 8.0
85.9501 6.0
85.9705 3.0
85.991 5.0
86.0114 10.0
86.0318 6.0
86.0523 6.0
86.0727 12.0
86.0931 9.0
86.1136 9.0
86.134 1.0
86.1544 5.0
86.1749 7.0
86.1953 11.0
86.2157 4.0
86.2362 7.0
86.2566 5.0
86.277 7.0
86.2975 7.0
86.3179 7.0
86.3383 6.0
86.3587 9.0
86.3792 6.0
86.3996 3.0
86.42 8.0
86.4405 4.0
86.4609 9.0
86.4813 2.0
86.5018 9.0
86.5222 2.0
86.5426 8.0
86.5631 14.0
86.5835 4.0
86.6039 5.0
86.6244 3.0
86.6448 10.0
86.6652 5.0
86.6857 9.0
86.7061 9.0
86.7265 7.0
86.747 5.0
86.7674 8.0
86.7878 4.0
86.8083 3.0
86.8287 6.0
86.8491 4.0
86.8696 9.0
86.89 7.0
86.9104 10.0
86.9309 6.0
86.9513 3.0
86.9717 2.0
86.9922 5.0
87.0126 6.0
87.033 5.0
87.0535 11.0
87.0739 3.0
87.0943 10.0
87.1148 6.0
87.1352 8.0
87.1556 9.0
87.1761 7.0
87.1965 10.0
87.2169 9.0
87.2373 4.0
87.2578 5.0
87.2782 4.0
87.2986 5.0
87.3191 3.0
87.3395 9.0
87.3599 8.0
87.3804 2.0
87.4008 4.0
87.4212 8.0
87.4417 3.0
87.4621 7.0
87.4825 9.0
87.503 9.0
87.5234 6.0
87.5438 2.0
87.5643 5.0
87.5847 6.0
87.6051 2.0
87.6256 4.0
87.646 5.0
87.6664 9.0
87.6869 6.0
87.7073 9.0
87.7277 5.0
87.7482 8.0
87.7686 10.0
87.789 4.0
87.8095 3.0
87.8299 8.0
87.8503 4.0
87.8708 6.0
87.8912 8.0
87.9116 5.0
87.9321 7.0
87.9525 7.0
87.9729 6.0
87.9934 6.0
88.0138 9.0
88.0342 4.0
88.0547 7.0
88.0751 13.0
88.0955 5.0
88.116 8.0
88.1364 4.0
88.1568 11.0
88.1772 7.0
88.1977 6.0
88.2181 11.0
88.2385 9.0
88.259 4.0
88.2794 6.0
88.2998 5.0
88.3203 5.0
88.3407 3.0
88.3611 5.0
88.3816 4.0
88.402 8.0
88.4224 6.0
88.4429 6.0
88.4633 5.0
88.4837 4.0
88.5042 4.0
88.5246 5.0
88.545 3.0
88.5655 10.0
88.5859 5.0
88.6063 2.0
88.6268 6.0
88.6472 7.0
88.6676 3.0
88.6881 8.0
88.7085 6.0
88.7289 7.0
88.7494 5.0
88.7698 2.0
88.7902 2.0
88.8107 4.0
88.8311 7.0
88.8515 4.0
88.872 9.0
88.8924 7.0
88.9128 7.0
88.9333 8.0
88.9537 5.0
88.9741 9.0
88.9946 6.0
89.015 4.0
89.0354 8.0
89.0558 6.0
89.0763 6.0
89.0967 8.0
89.1171 7.0
89.1376 7.0
89.158 7.0
89.1784 5.0
89.1989 9.0
89.2193 3.0
89.2397 11.0
89.2602 5.0
89.2806 4.0
89.301 8.0
89.3215 3.0
89.3419 4.0
89.3623 7.0
89.3828 9.0
89.4032 6.0
89.4236 6.0
89.4441 7.0
89.4645 9.0
89.4849 6.0
89.5054 9.0
89.5258 8.0
89.5462 6.0
89.5667 8.0
89.5871 7.0
89.6075 8.0
89.628 6.0
89.6484 10.0
89.6688 9.0
89.6893 5.0
89.7097 4.0
89.7301 9.0
89.7506 8.0
89.771 7.0
89.7914 6.0
89.8119 13.0
89.8323 9.0
89.8527 4.0
89.8732 7.0
89.8936 13.0
89.914 7.0
89.9345 4.0
89.9549 7.0
89.9753 13.0
89.9957 9.0
90.0162 8.0
90.0366 7.0
90.057 7.0
90.0775 7.0
90.0979 6.0
