9.9 43.0
9.9204 47.0
9.9409 49.0
9.9613 48.0
9.9817 37.0
10.0022 39.0
10.0226 47.0
10.043 55.0
10.0635 55.0
10.0839 57.0
10.1043 49.0
10.1248 52.0
10.1452 44.0
10.1656 45.0
10.1861 39.0
10.2065 54.0
10.2269 46.0
10.2474 53.0
10.2678 44.0
10.2882 54.0
10.3087 53.0
10.3291 41.0
10.3495 44.0
10.3699 54.0
10.3904 32.0
10.4108 54.0
10.4312 41.0
10.4517 52.0
10.4721 45.0
10.4925 40.0
10.513 50.0
10.5334 46.0
10.5538 56.0
10.5743 54.0
10.5947 59.0
10.6151 43.0
10.6356 42.0
10.656 69.0
10.6764 45.0
10.6969 38.0
10.7173 38.0
10.7377 44.0
10.7582 40.0
10.7786 46.0
10.799 59.0
10.8195 45.0
10.8399 38.0
10.8603 49.0
10.8808 58.0
10.9012 50.0
10.9216 40.0
10.9421 42.0
10.9625 49.0
10.9829 46.0
11.0034 40.0
11.0238 51.0
11.0442 51.0
11.0647 53.0
11.0851 59.0
11.1055 44.0
11.126 52.0
11.1464 35.0
11.1668 38.0
11.1873 44.0
11.2077 52.0
11.2281 52.0
11.2486 45.0
11.269 49.0
11.2894 45.0
11.3098 54.0
11.3303 49.0
11.3507 35.0
11.3711 52.0
11.3916 41.0
11.412 46.0
11.4324 38.0
11.4529 41.0
11.4733 30.0
11.4937 52.0
11.5142 36.0
11.5346 54.0
11.555 65.0
11.5755 42.0
11.5959 49.0
11.6163 55.0
11.6368 51.0
11.6572 53.0
11.6776 55.0
11.6981 47.0
11.7185 39.0
11.7389 54.0
11.7594 46.0
11.7798 49.0
11.8002 44.0
11.8207 51.0
11.8411 48.0
11.8615 40.0
11.882 37.0
11.9024 49.0
11.9228 49.0
11.9433 51.0
11.9637 51.0
11.9841 44.0
12.0046 50.0
12.025 43.0
12.0454 52.0
12.0659 57.0
12.0863 57.0
12.1067 48.0
12.1272 57.0
12.1476 37.0
12.168 49.0
12.1884 32.0
12.2089 35.0
12.2293 48.0
12.2497 38.0
12.2702 49.0
12.2906 47.0
12.311 36.0
12.3315 43.0
12.3519 51.0
12.3723 35.0
12.3928 45.0
12.4132 46.0
12.4336 50.0
12.4541 35.0
12.4745 47.0
12.4949 48.0
12.5154 43.0
12.5358 34.0
12.5562 44.0
12.5767 48.0
12.5971 51.0
12.6175 50.0
12.638 42.0
12.6584 45.0
12.6788 45.0
12.6993 43.0
12.7197 49.0
12.7401 51.0
12.7606 58.0
12.781 51.0
12.8014 35.0
12.8219 61.0
12.8423 40.0
12.8627 45.0
12.8832 41.0
12.9036 46.0
12.924 53.0
12.9445 56.0
12.9649 47.0
12.9853 40.0
13.0058 41.0
13.0262 45.0
13.0466 43.0
13.0671 43.0
13.0875 50.0
13.1079 56.0
13.1283 49.0
13.1488 45.0
13.1692 43.0
13.1896 50.0
13.2101 57.0
13.2305 55.0
13.2509 43.0
13.2714 44.0
13.2918 35.0
13.3122 40.0
13.3327 44.0
13.3531 51.0
13.3735 44.0
13.394 47.0
13.4144 37.0
13.4348 51.0
13.4553 50.0
13.4757 55.0
13.4961 49.0
13.5166 55.0
13.537 48.0
13.5574 39.0
13.5779 43.0
13.5983 38.0
13.6187 34.0
13.6392 41.0
13.6596 40.0
13.68 54.0
13.7005 42.0
13.7209 32.0
13.7413 44.0
13.7618 50.0
13.7822 53.0
13.8026 37.0
13.8231 52.0
13.8435 33.0
13.8639 46.0
13.8844 35.0
13.9048 42.0
13.9252 50.0
13.9457 49.0
13.9661 47.0
13.9865 44.0
14.007 44.0
14.0274 49.0
14.0478 52.0
14.0682 37.0
14.0887 39.0
14.1091 50.0
14.1295 34.0
14.15 36.0
14.1704 53.0
14.1908 39.0
14.2113 39.0
14.2317 44.0
14.2521 53.0
14.2726 37.0
14.293 50.0
14.3134 59.0
14.3339 38.0
14.3543 50.0
14.3747 41.0
14.3952 34.0
14.4156 38.0
14.436 34.0
14.4565 47.0
14.4769 39.0
14.4973 48.0
14.5178 35.0
14.5382 44.0
14.5586 36.0
14.5791 40.0
14.5995 43.0
14.6199 37.0
14.6404 32.0
14.6608 45.0
14.6812 30.0
14.7017 39.0
14.7221 43.0
14.7425 44.0
14.763 37.0
14.7834 38.0
14.8038 41.0
14.8243 31.0
14.8447 46.0
14.8651 30.0
14.8856 38.0
14.906 37.0
14.9264 69.0
14.9468 34.0
14.9673 31.0
14.9877 33.0
15.0081 49.0
15.0286 34.0
15.049 35.0
15.0694 48.0
15.0899 33.0
15.1103 35.0
15.1307 39.0
15.1512 33.0
15.1716 51.0
15.192 56.0
15.2125 40.0
15.2329 46.0
15.2533 44.0
15.2738 29.0
15.2942 34.0
15.3146 39.0
15.3351 32.0
15.3555 41.0
15.3759 36.0
15.3964 47.0
15.4168 32.0
15.4372 33.0
15.4577 50.0
15.4781 38.0
15.4985 37.0
15.519 47.0
15.5394 43.0
15.5598 47.0
15.5803 42.0
15.6007 41.0
15.6211 41.0
15.6416 41.0
15.662 45.0
15.6824 41.0
15.7029 48.0
15.7233 40.0
15.7437 29.0
15.7642 42.0
15.7846 44.0
15.805 33.0
15.8255 29.0
15.8459 43.0
15.8663 36.0
15.8867 33.0
15.9072 35.0
15.9276 47.0
15.948 50.0
15.9685 52.0
15.9889 40.0
16.0093 39.0
16.0298 49.0
16.0502 38.0
16.0706 44.0
16.0911 33.0
16.1115 45.0
16.1319 40.0
16.1524 33.0
16.1728 49.0
16.1932 31.0
16.2137 35.0
16.2341 31.0
16.2545 42.0
16.275 31.0
16.2954 50.0
16.3158 44.0
16.3363 43.0
16.3567 49.0
16.3771 36.0
16.3976 33.0
16.418 38.0
16.4384 52.0
16.4589 42.0
16.4793 43.0
16.4997 38.0
16.5202 41.0
16.5406 28.0
16.561 33.0
16.5815 43.0
16.6019 40.0
16.6223 29.0
16.6428 40.0
16.6632 49.0
16.6836 45.0
16.7041 46.0
16.7245 36.0
16.7449 45.0
16.7653 50.0
16.7858 42.0
16.8062 31.0
16.8266 42.0
16.8471 42.0
16.8675 35.0
16.8879 35.0
16.9084 39.0
16.9288 48.0
16.9492 41.0
16.9697 40.0
16.9901 39.0
17.0105 46.0
17.031 48.0
17.0514 38.0
17.0718 36.0
17.0923 40.0
17.1127 46.0
17.1331 39.0
17.1536 30.0
17.174 49.0
17.1944 46.0
17.2149 40.0
17.2353 38.0
17.2557 40.0
17.2762 40.0
17.2966 37.0
17.317 36.0
17.3375 30.0
17.3579 35.0
17.3783 27.0
17.3988 49.0
17.4192 51.0
17.4396 47.0
17.4601 34.0
17.4805 41.0
17.5009 45.0
17.5214 43.0
17.5418 39.0
17.5622 36.0
17.5827 31.0
17.6031 33.0
17.6235 46.0
17.644 46.0
17.6644 30.0
17.6848 44.0
17.7052 36.0
17.7257 37.0
17.7461 50.0
17.7665 38.0
17.787 48.0
17.8074 46.0
17.8278 42.0
17.8483 42.0
17.8687 41.0
17.8891 35.0
17.9096 38.0
17.93 35.0
17.9504 46.0
17.9709 37.0
17.9913 30.0
18.0117 49.0
18.0322 40.0
18.0526 29.0
18.073 27.0
18.0935 39.0
18.1139 41.0
18.1343 45.0
18.1548 57.0
18.1752 38.0
18.1956 36.0
18.2161 38.0
18.2365 34.0
18.2569 41.0
18.2774 50.0
18.2978 41.0
18.3182 40.0
18.3387 44.0
18.3591 37.0
18.3795 33.0
18.4 35.0
18.4204 34.0
18.4408 43.0
18.4613 32.0
18.4817 52.0
18.5021 26.0
18.5226 44.0
18.543 46.0
18.5634 43.0
18.5839 42.0
18.6043 35.0
18.6247 44.0
18.6451 31.0
18.6656 46.0
18.686 41.0
18.7064 40.0
18.7269 40.0
18.7473 44.0
18.7677 41.0
18.7882 32.0
18.8086 34.0
18.829 29.0
18.8495 33.0
18.8699 37.0
18.8903 51.0
18.9108 52.0
18.9312 38.0
18.9516 35.0
18.9721 38.0
18.9925 31.0
19.0129 34.0
19.0334 42.0
19.0538 54.0
19.0742 57.0
19.0947 55.0
19.1151 73.0
19.1355 87.0
19.156 85.0
19.1764 96.0
19.1968 107.0
19.2173 103.0
19.2377 78.0
19.2581 62.0
19.2786 52.0
19.299 50.0
19.3194 46.0
19.3399 43.0
19.3603 41.0
19.3807 45.0
19.4012 46.0
19.4216 39.0
19.442 28.0
19.4625 35.0
19.4829 47.0
19.5033 45.0
19.5237 20.0
19.5442 35.0
19.5646 28.0
19.585 42.0
19.6055 38.0
19.6259 31.0
19.6463 36.0
19.6668 44.0
19.6872 25.0
19.7076 53.0
19.7281 44.0
19.7485 33.0
19.7689 35.0
19.7894 35.0
19.8098 34.0
19.8302 29.0
19.8507 34.0
19.8711 41.0
19.8915 39.0
19.912 35.0
19.9324 36.0
19.9528 42.0
19.9733 36.0
19.9937 57.0
20.0141 44.0
20.0346 41.0
20.055 34.0
20.0754 38.0
20.0959 28.0
20.1163 28.0
20.1367 35.0
20.1572 33.0
20.1776 37.0
20.198 42.0
20.2185 34.0
20.2389 37.0
20.2593 46.0
20.2798 39.0
20.3002 30.0
20.3206 26.0
20.3411 33.0
20.3615 36.0
20.3819 37.0
20.4024 39.0
20.4228 31.0
20.4432 29.0
20.4636 35.0
20.4841 32.0
20.5045 49.0
20.5249 43.0
20.5454 40.0
20.5658 30.0
20.5862 35.0
20.6067 39.0
20.6271 32.0
20.6475 38.0
20.668 37.0
20.6884 35.0
20.7088 37.0
20.7293 34.0
20.7497 42.0
20.7701 34.0
20.7906 41.0
20.811 39.0
20.8314 31.0
20.8519 32.0
20.8723 47.0
20.8927 37.0
20.9132 31.0
20.9336 33.0
20.954 35.0
20.9745 40.0
20.9949 43.0
21.0153 29.0
21.0358 38.0
21.0562 37.0
21.0766 33.0
21.0971 29.0
21.1175 43.0
21.1379 33.0
21.1584 40.0
21.1788 48.0
21.1992 41.0
21.2197 29.0
21.2401 36.0
21.2605 39.0
21.281 23.0
21.3014 44.0
21.3218 33.0
21.3422 29.0
21.3627 37.0
21.3831 30.0
21.4035 37.0
21.424 36.0
21.4444 39.0
21.4648 35.0
21.4853 31.0
21.5057 35.0
21.5261 47.0
21.5466 42.0
21.567 34.0
21.5874 33.0
21.6079 37.0
21.6283 34.0
21.6487 23.0
21.6692 41.0
21.6896 40.0
21.71 40.0
21.7305 34.0
21.7509 45.0
21.7713 25.0
21.7918 38.0
21.8122 35.0
21.8326 39.0
21.8531 34.0
21.8735 34.0
21.8939 40.0
21.9144 35.0
21.9348 44.0
21.9552 33.0
21.9757 39.0
21.9961 46.0
22.0165 41.0
22.037 24.0
22.0574 35.0
22.0778 36.0
22.0983 50.0
22.1187 37.0
22.1391 41.0
22.1596 47.0
22.18 34.0
22.2004 35.0
22.2209 38.0
22.2413 34.0
22.2617 35.0
22.2821 29.0
22.3026 31.0
22.323 35.0
22.3434 41.0
22.3639 43.0
22.3843 31.0
22.4047 37.0
22.4252 39.0
22.4456 48.0
22.466 37.0
22.4865 28.0
22.5069 32.0
22.5273 45.0
22.5478 36.0
22.5682 27.0
22.5886 44.0
22.6091 34.0
22.6295 35.0
22.6499 33.0
22.6704 37.0
22.6908 33.0
22.7112 41.0
22.7317 30.0
22.7521 22.0
22.7725 34.0
22.793 38.0
22.8134 32.0
22.8338 36.0
22.8543 37.0
22.8747 43.0
22.8951 37.0
22.9156 29.0
22.936 31.0
22.9564 40.0
22.9769 37.0
22.9973 26.0
23.0177 38.0
23.0382 32.0
23.0586 31.0
23.079 48.0
23.0995 33.0
23.1199 32.0
23.1403 33.0
23.1608 25.0
23.1812 31.0
23.2016 33.0
23.222 44.0
23.2425 50.0
23.2629 31.0
23.2833 37.0
23.3038 28.0
23.3242 40.0
23.3446 42.0
23.3651 31.0
23.3855 33.0
23.4059 38.0
23.4264 32.0
23.4468 32.0
23.4672 35.0
23.4877 32.0
23.5081 21.0
23.5285 33.0
23.549 42.0
23.5694 34.0
23.5898 32.0
23.6103 40.0
23.6307 43.0
23.6511 29.0
23.6716 35.0
23.692 37.0
23.7124 28.0
23.7329 45.0
23.7533 37.0
23.7737 46.0
23.7942 38.0
23.8146 35.0
23.835 40.0
23.8555 38.0
23.8759 36.0
23.8963 39.0
23.9168 36.0
23.9372 48.0
23.9576 35.0
23.9781 31.0
23.9985 29.0
24.0189 34.0
24.0394 39.0
24.0598 37.0
24.0802 33.0
24.1006 27.0
24.1211 36.0
24.1415 26.0
24.1619 39.0
24.1824 27.0
24.2028 40.0
24.2232 30.0
24.2437 32.0
24.2641 44.0
24.2845 36.0
24.305 42.0
24.3254 24.0
24.3458 31.0
24.3663 27.0
24.3867 32.0
24.4071 29.0
24.4276 29.0
24.448 30.0
24.4684 36.0
24.4889 41.0
24.5093 39.0
24.5297 32.0
24.5502 37.0
24.5706 29.0
24.591 33.0
24.6115 42.0
24.6319 34.0
24.6523 35.0
24.6728 34.0
24.6932 31.0
24.7136 31.0
24.7341 38.0
24.7545 25.0
24.7749 32.0
24.7954 31.0
24.8158 39.0
24.8362 35.0
24.8567 36.0
24.8771 38.0
24.8975 43.0
24.918 35.0
24.9384 39.0
24.9588 50.0
24.9793 38.0
24.9997 35.0
25.0201 38.0
25.0405 36.0
25.061 39.0
25.0814 31.0
25.1018 44.0
25.1223 35.0
25.1427 37.0
25.1631 32.0
25.1836 30.0
25.204 27.0
25.2244 39.0
25.2449 37.0
25.2653 26.0
25.2857 42.0
25.3062 37.0
25.3266 32.0
25.347 31.0
25.3675 27.0
25.3879 33.0
25.4083 37.0
25.4288 29.0
25.4492 24.0
25.4696 32.0
25.4901 44.0
25.5105 40.0
25.5309 35.0
25.5514 40.0
25.5718 26.0
25.5922 34.0
25.6127 39.0
25.6331 45.0
25.6535 48.0
25.674 25.0
25.6944 34.0
25.7148 31.0
25.7353 38.0
25.7557 40.0
25.7761 18.0
25.7966 41.0
25.817 46.0
25.8374 27.0
25.8579 37.0
25.8783 26.0
25.8987 26.0
25.9191 30.0
25.9396 37.0
25.96 35.0
25.9804 38.0
26.0009 20.0
26.0213 24.0
26.0417 44.0
26.0622 44.0
26.0826 35.0
26.103 34.0
26.1235 42.0
26.1439 50.0
26.1643 51.0
26.1848 32.0
26.2052 33.0
26.2256 34.0
26.2461 45.0
26.2665 35.0
26.2869 33.0
26.3074 32.0
26.3278 26.0
26.3482 35.0
26.3687 36.0
26.3891 47.0
26.4095 27.0
26.43 36.0
26.4504 35.0
26.4708 34.0
26.4913 47.0
26.5117 41.0
26.5321 40.0
26.5526 40.0
26.573 25.0
26.5934 40.0
26.6139 37.0
26.6343 38.0
26.6547 36.0
26.6752 33.0
26.6956 45.0
26.716 37.0
26.7365 31.0
26.7569 23.0
26.7773 41.0
26.7978 37.0
26.8182 25.0
26.8386 40.0
26.859 56.0
26.8795 26.0
26.8999 36.0
26.9203 31.0
26.9408 42.0
26.9612 49.0
26.9816 23.0
27.0021 37.0
27.0225 44.0
27.0429 35.0
27.0634 52.0
27.0838 21.0
27.1042 34.0
27.1247 32.0
27.1451 42.0
27.1655 29.0
27.186 31.0
27.2064 28.0
27.2268 40.0
27.2473 38.0
27.2677 37.0
27.2881 36.0
27.3086 35.0
27.329 27.0
27.3494 30.0
27.3699 33.0
27.3903 31.0
27.4107 28.0
27.4312 44.0
27.4516 32.0
27.472 41.0
27.4925 35.0
27.5129 34.0
27.5333 45.0
27.5538 38.0
27.5742 36.0
27.5946 27.0
27.6151 39.0
27.6355 42.0
27.6559 33.0
27.6764 33.0
27.6968 36.0
27.7172 57.0
27.7377 34.0
27.7581 30.0
27.7785 37.0
27.7989 37.0
27.8194 27.0
27.8398 39.0
27.8602 26.0
27.8807 33.0
27.9011 31.0
27.9215 40.0
27.942 28.0
27.9624 31.0
27.9828 36.0
28.0033 36.0
28.0237 35.0
28.0441 49.0
28.0646 35.0
28.085 24.0
28.1054 27.0
28.1259 33.0
28.1463 45.0
28.1667 36.0
28.1872 28.0
28.2076 28.0
28.228 46.0
28.2485 35.0
28.2689 38.0
28.2893 34.0
28.3098 27.0
28.3302 33.0
28.3506 42.0
28.3711 44.0
28.3915 48.0
28.4119 35.0
28.4324 39.0
28.4528 33.0
28.4732 36.0
28.4937 29.0
28.5141 38.0
28.5345 31.0
28.555 33.0
28.5754 37.0
28.5958 18.0
28.6163 21.0
28.6367 35.0
28.6571 36.0
28.6775 33.0
28.698 30.0
28.7184 37.0
28.7388 34.0
28.7593 34.0
28.7797 39.0
28.8001 32.0
28.8206 35.0
28.841 36.0
28.8614 33.0
28.8819 37.0
28.9023 32.0
28.9227 36.0
28.9432 41.0
28.9636 29.0
28.984 33.0
29.0045 27.0
29.0249 30.0
29.0453 37.0
29.0658 29.0
29.0862 32.0
29.1066 33.0
29.1271 38.0
29.1475 37.0
29.1679 29.0
29.1884 36.0
29.2088 35.0
29.2292 30.0
29.2497 36.0
29.2701 34.0
29.2905 41.0
29.311 28.0
29.3314 36.0
29.3518 28.0
29.3723 33.0
29.3927 31.0
29.4131 21.0
29.4336 33.0
29.454 34.0
29.4744 24.0
29.4949 37.0
29.5153 49.0
29.5357 34.0
29.5562 34.0
29.5766 27.0
29.597 35.0
29.6174 36.0
29.6379 39.0
29.6583 39.0
29.6787 28.0
29.6992 38.0
29.7196 33.0
29.74 38.0
29.7605 32.0
29.7809 37.0
29.8013 36.0
29.8218 33.0
29.8422 37.0
29.8626 31.0
29.8831 30.0
29.9035 35.0
29.9239 41.0
29.9444 47.0
29.9648 37.0
29.9852 32.0
30.0057 51.0
30.0261 44.0
30.0465 47.0
30.067 55.0
30.0874 53.0
30.1078 84.0
30.1283 104.0
30.1487 124.0
30.1691 112.0
30.1896 134.0
30.21 106.0
30.2304 93.0
30.2509 78.0
30.2713 57.0
30.2917 53.0
30.3122 47.0
30.3326 41.0
30.353 52.0
30.3735 41.0
30.3939 40.0
30.4143 28.0
30.4348 44.0
30.4552 40.0
30.4756 39.0
30.496 40.0
30.5165 32.0
30.5369 35.0
30.5573 32.0
30.5778 33.0
30.5982 29.0
30.6186 30.0
30.6391 42.0
30.6595 30.0
30.6799 27.0
30.7004 29.0
30.7208 32.0
30.7412 43.0
30.7617 36.0
30.7821 23.0
30.8025 27.0
30.823 38.0
30.8434 39.0
30.8638 36.0
30.8843 39.0
30.9047 29.0
30.9251 43.0
30.9456 26.0
30.966 34.0
30.9864 31.0
31.0069 29.0
31.0273 33.0
31.0477 19.0
31.0682 29.0
31.0886 45.0
31.109 35.0
31.1295 35.0
31.1499 33.0
31.1703 42.0
31.1908 29.0
31.2112 40.0
31.2316 35.0
31.2521 43.0
31.2725 42.0
31.2929 42.0
31.3134 59.0
31.3338 50.0
31.3542 73.0
31.3747 81.0
31.3951 116.0
31.4155 146.0
31.4359 144.0
31.4564 161.0
31.4768 135.0
31.4972 133.0
31.5177 101.0
31.5381 111.0
31.5585 82.0
31.579 77.0
31.5994 74.0
31.6198 54.0
31.6403 56.0
31.6607 45.0
31.6811 37.0
31.7016 38.0
31.722 44.0
31.7424 41.0
31.7629 29.0
31.7833 35.0
31.8037 38.0
31.8242 39.0
31.8446 44.0
31.865 44.0
31.8855 34.0
31.9059 36.0
31.9263 32.0
31.9468 33.0
31.9672 27.0
31.9876 33.0
32.0081 35.0
32.0285 37.0
32.0489 30.0
32.0694 33.0
32.0898 42.0
32.1102 39.0
32.1307 27.0
32.1511 30.0
32.1715 30.0
32.192 36.0
32.2124 34.0
32.2328 45.0
32.2533 46.0
32.2737 33.0
32.2941 30.0
32.3146 47.0
32.335 31.0
32.3554 49.0
32.3758 34.0
32.3963 35.0
32.4167 37.0
32.4371 30.0
32.4576 32.0
32.478 28.0
32.4984 31.0
32.5189 40.0
32.5393 31.0
32.5597 30.0
32.5802 40.0
32.6006 29.0
32.621 26.0
32.6415 34.0
32.6619 32.0
32.6823 35.0
32.7028 43.0
32.7232 30.0
32.7436 31.0
32.7641 23.0
32.7845 42.0
32.8049 40.0
32.8254 32.0
32.8458 41.0
32.8662 33.0
32.8867 31.0
32.9071 39.0
32.9275 36.0
32.948 33.0
32.9684 37.0
32.9888 36.0
33.0093 28.0
33.0297 33.0
33.0501 37.0
33.0706 36.0
33.091 42.0
33.1114 56.0
33.1319 55.0
33.1523 40.0
33.1727 43.0
33.1932 49.0
33.2136 47.0
33.234 48.0
33.2544 39.0
33.2749 52.0
33.2953 36.0
33.3157 35.0
33.3362 28.0
33.3566 29.0
33.377 40.0
33.3975 42.0
33.4179 35.0
33.4383 32.0
33.4588 34.0
33.4792 33.0
33.4996 34.0
33.5201 23.0
33.5405 29.0
33.5609 37.0
33.5814 30.0
33.6018 42.0
33.6222 26.0
33.6427 47.0
33.6631 38.0
33.6835 35.0
33.704 33.0
33.7244 34.0
33.7448 34.0
33.7653 33.0
33.7857 19.0
33.8061 41.0
33.8266 39.0
33.847 38.0
33.8674 27.0
33.8879 30.0
33.9083 27.0
33.9287 45.0
33.9492 33.0
33.9696 23.0
33.99 33.0
34.0105 28.0
34.0309 41.0
34.0513 30.0
34.0718 32.0
34.0922 36.0
34.1126 41.0
34.1331 36.0
34.1535 42.0
34.1739 37.0
34.1943 30.0
34.2148 45.0
34.2352 34.0
34.2556 46.0
34.2761 40.0
34.2965 47.0
34.3169 65.0
34.3374 61.0
34.3578 51.0
34.3782 60.0
34.3987 57.0
34.4191 52.0
34.4395 54.0
34.46 44.0
34.4804 44.0
34.5008 54.0
34.5213 54.0
34.5417 58.0
34.5621 57.0
34.5826 70.0
34.603 59.0
34.6234 50.0
34.6439 73.0
34.6643 53.0
34.6847 61.0
34.7052 43.0
34.7256 51.0
34.746 35.0
34.7665 35.0
34.7869 33.0
34.8073 34.0
34.8278 40.0
34.8482 37.0
34.8686 35.0
34.8891 46.0
34.9095 31.0
34.9299 43.0
34.9504 21.0
34.9708 34.0
34.9912 40.0
35.0117 35.0
35.0321 37.0
35.0525 28.0
35.0729 41.0
35.0934 36.0
35.1138 33.0
35.1342 26.0
35.1547 39.0
35.1751 56.0
35.1955 33.0
35.216 34.0
35.2364 33.0
35.2568 46.0
35.2773 55.0
35.2977 57.0
35.3181 76.0
35.3386 74.0
35.359 75.0
35.3794 79.0
35.3999 75.0
35.4203 88.0
35.4407 73.0
35.4612 47.0
35.4816 68.0
35.502 50.0
35.5225 44.0
35.5429 38.0
35.5633 37.0
35.5838 32.0
35.6042 27.0
35.6246 44.0
35.6451 42.0
35.6655 31.0
35.6859 35.0
35.7064 36.0
35.7268 40.0
35.7472 28.0
35.7677 33.0
35.7881 39.0
35.8085 37.0
35.829 35.0
35.8494 41.0
35.8698 38.0
35.8903 35.0
35.9107 34.0
35.9311 32.0
35.9516 32.0
35.972 32.0
35.9924 47.0
36.0128 36.0
36.0333 30.0
36.0537 34.0
36.0741 31.0
36.0946 38.0
36.115 28.0
36.1354 38.0
36.1559 39.0
36.1763 35.0
36.1967 48.0
36.2172 35.0
36.2376 39.0
36.258 43.0
36.2785 39.0
36.2989 36.0
36.3193 34.0
36.3398 39.0
36.3602 45.0
36.3806 43.0
36.4011 42.0
36.4215 30.0
36.4419 38.0
36.4624 38.0
36.4828 40.0
36.5032 36.0
36.5237 39.0
36.5441 43.0
36.5645 46.0
36.585 45.0
36.6054 49.0
36.6258 48.0
36.6463 67.0
36.6667 43.0
36.6871 45.0
36.7076 50.0
36.728 55.0
36.7484 61.0
36.7689 48.0
36.7893 53.0
36.8097 65.0
36.8302 72.0
36.8506 80.0
36.871 97.0
36.8915 111.0
36.9119 135.0
36.9323 185.0
36.9527 231.0
36.9732 310.0
36.9936 326.0
37.014 377.0
37.0345 384.0
37.0549 328.0
37.0753 303.0
37.0958 252.0
37.1162 248.0
37.1366 221.0
37.1571 172.0
37.1775 134.0
37.1979 92.0
37.2184 92.0
37.2388 73.0
37.2592 79.0
37.2797 67.0
37.3001 69.0
37.3205 40.0
37.341 57.0
37.3614 38.0
37.3818 42.0
37.4023 48.0
37.4227 40.0
37.4431 45.0
37.4636 51.0
37.484 47.0
37.5044 40.0
37.5249 38.0
37.5453 47.0
37.5657 38.0
37.5862 42.0
37.6066 48.0
37.627 39.0
37.6475 41.0
37.6679 53.0
37.6883 39.0
37.7088 38.0
37.7292 44.0
37.7496 51.0
37.7701 37.0
37.7905 57.0
37.8109 49.0
37.8313 44.0
37.8518 43.0
37.8722 54.0
37.8926 59.0
37.9131 59.0
37.9335 64.0
37.9539 74.0
37.9744 110.0
37.9948 87.0
38.0152 90.0
38.0357 81.0
38.0561 67.0
38.0765 85.0
38.097 71.0
38.1174 64.0
38.1378 62.0
38.1583 53.0
38.1787 64.0
38.1991 47.0
38.2196 46.0
38.24 53.0
38.2604 43.0
38.2809 41.0
38.3013 48.0
38.3217 41.0
38.3422 40.0
38.3626 36.0
38.383 37.0
38.4035 33.0
38.4239 36.0
38.4443 41.0
38.4648 41.0
38.4852 45.0
38.5056 37.0
38.5261 44.0
38.5465 37.0
38.5669 49.0
38.5874 48.0
38.6078 38.0
38.6282 48.0
38.6487 53.0
38.6691 60.0
38.6895 78.0
38.71 78.0
38.7304 61.0
38.7508 73.0
38.7712 73.0
38.7917 68.0
38.8121 68.0
38.8325 49.0
38.853 54.0
38.8734 42.0
38.8938 27.0
38.9143 45.0
38.9347 42.0
38.9551 35.0
38.9756 36.0
38.996 39.0
39.0164 37.0
39.0369 29.0
39.0573 36.0
39.0777 41.0
39.0982 33.0
39.1186 25.0
39.139 30.0
39.1595 28.0
39.1799 36.0
39.2003 35.0
39.2208 29.0
39.2412 31.0
39.2616 32.0
39.2821 36.0
39.3025 29.0
39.3229 41.0
39.3434 40.0
39.3638 34.0
39.3842 29.0
39.4047 38.0
39.4251 32.0
39.4455 36.0
39.466 40.0
39.4864 39.0
39.5068 25.0
39.5273 35.0
39.5477 37.0
39.5681 30.0
39.5886 40.0
39.609 37.0
39.6294 35.0
39.6498 41.0
39.6703 36.0
39.6907 33.0
39.7111 33.0
39.7316 29.0
39.752 35.0
39.7724 40.0
39.7929 47.0
39.8133 35.0
39.8337 48.0
39.8542 47.0
39.8746 59.0
39.895 55.0
39.9155 50.0
39.9359 58.0
39.9563 59.0
39.9768 45.0
39.9972 59.0
40.0176 49.0
40.0381 40.0
40.0585 45.0
40.0789 36.0
40.0994 37.0
40.1198 27.0
40.1402 44.0
40.1607 32.0
40.1811 37.0
40.2015 38.0
40.222 35.0
40.2424 34.0
40.2628 38.0
40.2833 42.0
40.3037 32.0
40.3241 32.0
40.3446 47.0
40.365 24.0
40.3854 14.0
40.4059 34.0
40.4263 33.0
40.4467 24.0
40.4672 28.0
40.4876 26.0
40.508 35.0
40.5285 24.0
40.5489 25.0
40.5693 37.0
40.5897 34.0
40.6102 24.0
40.6306 27.0
40.651 40.0
40.6715 21.0
40.6919 42.0
40.7123 28.0
40.7328 32.0
40.7532 36.0
40.7736 31.0
40.7941 48.0
40.8145 30.0
40.8349 29.0
40.8554 14.0
40.8758 28.0
40.8962 36.0
40.9167 37.0
40.9371 27.0
40.9575 37.0
40.978 36.0
40.9984 35.0
41.0188 25.0
41.0393 30.0
41.0597 32.0
41.0801 38.0
41.1006 31.0
41.121 38.0
41.1414 44.0
41.1619 33.0
41.1823 42.0
41.2027 34.0
41.2232 34.0
41.2436 34.0
41.264 59.0
41.2845 49.0
41.3049 41.0
41.3253 37.0
41.3458 41.0
41.3662 50.0
41.3866 34.0
41.4071 36.0
41.4275 43.0
41.4479 46.0
41.4684 46.0
41.4888 46.0
41.5092 45.0
41.5296 51.0
41.5501 40.0
41.5705 33.0
41.5909 54.0
41.6114 43.0
41.6318 45.0
41.6522 57.0
41.6727 46.0
41.6931 42.0
41.7135 54.0
41.734 44.0
41.7544 41.0
41.7748 45.0
41.7953 45.0
41.8157 34.0
41.8361 33.0
41.8566 37.0
41.877 34.0
41.8974 36.0
41.9179 35.0
41.9383 33.0
41.9587 29.0
41.9792 23.0
41.9996 41.0
42.02 32.0
42.0405 39.0
42.0609 24.0
42.0813 32.0
42.1018 33.0
42.1222 36.0
42.1426 19.0
42.1631 28.0
42.1835 33.0
42.2039 25.0
42.2244 30.0
42.2448 35.0
42.2652 36.0
42.2857 25.0
42.3061 27.0
42.3265 31.0
42.347 34.0
42.3674 33.0
42.3878 35.0
42.4082 34.0
42.4287 36.0
42.4491 40.0
42.4695 26.0
42.49 32.0
42.5104 36.0
42.5308 38.0
42.5513 37.0
42.5717 31.0
42.5921 37.0
42.6126 36.0
42.633 26.0
42.6534 29.0
42.6739 40.0
42.6943 28.0
42.7147 42.0
42.7352 37.0
42.7556 23.0
42.776 44.0
42.7965 41.0
42.8169 26.0
42.8373 46.0
42.8578 28.0
42.8782 24.0
42.8986 39.0
42.9191 32.0
42.9395 40.0
42.9599 32.0
42.9804 35.0
43.0008 34.0
43.0212 35.0
43.0417 33.0
43.0621 28.0
43.0825 26.0
43.103 34.0
43.1234 19.0
43.1438 27.0
43.1643 22.0
43.1847 35.0
43.2051 37.0
43.2256 36.0
43.246 31.0
43.2664 38.0
43.2869 24.0
43.3073 30.0
43.3277 49.0
43.3481 31.0
43.3686 36.0
43.389 42.0
43.4094 32.0
43.4299 37.0
43.4503 42.0
43.4707 28.0
43.4912 24.0
43.5116 29.0
43.532 35.0
43.5525 32.0
43.5729 38.0
43.5933 33.0
43.6138 29.0
43.6342 36.0
43.6546 26.0
43.6751 36.0
43.6955 32.0
43.7159 34.0
43.7364 28.0
43.7568 28.0
43.7772 36.0
43.7977 41.0
43.8181 44.0
43.8385 32.0
43.859 32.0
43.8794 32.0
43.8998 38.0
43.9203 39.0
43.9407 34.0
43.9611 30.0
43.9816 31.0
44.002 29.0
44.0224 36.0
44.0429 24.0
44.0633 42.0
44.0837 25.0
44.1042 31.0
44.1246 33.0
44.145 37.0
44.1655 32.0
44.1859 34.0
44.2063 33.0
44.2267 28.0
44.2472 29.0
44.2676 35.0
44.288 22.0
44.3085 24.0
44.3289 35.0
44.3493 31.0
44.3698 42.0
44.3902 47.0
44.4106 31.0
44.4311 31.0
44.4515 37.0
44.4719 14.0
44.4924 39.0
44.5128 29.0
44.5332 38.0
44.5537 41.0
44.5741 43.0
44.5945 36.0
44.615 47.0
44.6354 37.0
44.6558 33.0
44.6763 48.0
44.6967 30.0
44.7171 38.0
44.7376 51.0
44.758 39.0
44.7784 46.0
44.7989 40.0
44.8193 35.0
44.8397 50.0
44.8602 58.0
44.8806 55.0
44.901 58.0
44.9215 69.0
44.9419 99.0
44.9623 84.0
44.9828 93.0
45.0032 79.0
45.0236 71.0
45.0441 90.0
45.0645 68.0
45.0849 93.0
45.1054 59.0
45.1258 56.0
45.1462 58.0
45.1666 38.0
45.1871 34.0
45.2075 38.0
45.2279 44.0
45.2484 52.0
45.2688 48.0
45.2892 41.0
45.3097 40.0
45.3301 23.0
45.3505 43.0
45.371 36.0
45.3914 41.0
45.4118 34.0
45.4323 39.0
45.4527 39.0
45.4731 37.0
45.4936 49.0
45.514 22.0
45.5344 26.0
45.5549 38.0
45.5753 28.0
45.5957 28.0
45.6162 42.0
45.6366 32.0
45.657 31.0
45.6775 33.0
45.6979 30.0
45.7183 35.0
45.7388 34.0
45.7592 45.0
45.7796 33.0
45.8001 26.0
45.8205 35.0
45.8409 24.0
45.8614 27.0
45.8818 39.0
45.9022 35.0
45.9227 37.0
45.9431 29.0
45.9635 50.0
45.984 34.0
46.0044 33.0
46.0248 39.0
46.0453 33.0
46.0657 36.0
46.0861 39.0
46.1065 31.0
46.127 33.0
46.1474 33.0
46.1678 28.0
46.1883 40.0
46.2087 28.0
46.2291 32.0
46.2496 37.0
46.27 26.0
46.2904 26.0
46.3109 21.0
46.3313 32.0
46.3517 41.0
46.3722 32.0
46.3926 36.0
46.413 39.0
46.4335 35.0
46.4539 42.0
46.4743 37.0
46.4948 38.0
46.5152 34.0
46.5356 36.0
46.5561 44.0
46.5765 36.0
46.5969 41.0
46.6174 32.0
46.6378 50.0
46.6582 58.0
46.6787 50.0
46.6991 44.0
46.7195 39.0
46.74 37.0
46.7604 36.0
46.7808 34.0
46.8013 56.0
46.8217 44.0
46.8421 50.0
46.8626 30.0
46.883 51.0
46.9034 41.0
46.9239 30.0
46.9443 41.0
46.9647 27.0
46.9851 32.0
47.0056 32.0
47.026 37.0
47.0464 37.0
47.0669 26.0
47.0873 23.0
47.1077 27.0
47.1282 36.0
47.1486 39.0
47.169 37.0
47.1895 34.0
47.2099 42.0
47.2303 26.0
47.2508 28.0
47.2712 40.0
47.2916 35.0
47.3121 25.0
47.3325 35.0
47.3529 27.0
47.3734 31.0
47.3938 27.0
47.4142 30.0
47.4347 35.0
47.4551 43.0
47.4755 30.0
47.496 38.0
47.5164 36.0
47.5368 37.0
47.5573 30.0
47.5777 32.0
47.5981 32.0
47.6186 33.0
47.639 22.0
47.6594 31.0
47.6799 35.0
47.7003 27.0
47.7207 35.0
47.7412 29.0
47.7616 46.0
47.782 30.0
47.8025 46.0
47.8229 39.0
47.8433 27.0
47.8638 25.0
47.8842 29.0
47.9046 28.0
47.925 28.0
47.9455 26.0
47.9659 29.0
47.9863 32.0
48.0068 31.0
48.0272 33.0
48.0476 28.0
48.0681 32.0
48.0885 28.0
48.1089 20.0
48.1294 37.0
48.1498 40.0
48.1702 28.0
48.1907 28.0
48.2111 27.0
48.2315 35.0
48.252 33.0
48.2724 28.0
48.2928 38.0
48.3133 42.0
48.3337 51.0
48.3541 51.0
48.3746 56.0
48.395 51.0
48.4154 40.0
48.4359 33.0
48.4563 54.0
48.4767 50.0
48.4972 53.0
48.5176 41.0
48.538 43.0
48.5585 39.0
48.5789 44.0
48.5993 34.0
48.6198 26.0
48.6402 32.0
48.6606 31.0
48.6811 30.0
48.7015 37.0
48.7219 31.0
48.7424 34.0
48.7628 33.0
48.7832 25.0
48.8036 42.0
48.8241 28.0
48.8445 36.0
48.8649 24.0
48.8854 27.0
48.9058 24.0
48.9262 29.0
48.9467 30.0
48.9671 29.0
48.9875 39.0
49.008 29.0
49.0284 34.0
49.0488 30.0
49.0693 24.0
49.0897 21.0
49.1101 32.0
49.1306 31.0
49.151 28.0
49.1714 35.0
49.1919 36.0
49.2123 34.0
49.2327 32.0
49.2532 32.0
49.2736 22.0
49.294 29.0
49.3145 33.0
49.3349 26.0
49.3553 35.0
49.3758 29.0
49.3962 26.0
49.4166 28.0
49.4371 36.0
49.4575 38.0
49.4779 27.0
49.4984 30.0
49.5188 28.0
49.5392 38.0
49.5597 28.0
49.5801 34.0
49.6005 25.0
49.621 28.0
49.6414 25.0
49.6618 31.0
49.6823 33.0
49.7027 35.0
49.7231 20.0
49.7435 31.0
49.764 26.0
49.7844 27.0
49.8048 44.0
49.8253 29.0
49.8457 24.0
49.8661 22.0
49.8866 33.0
49.907 29.0
49.9274 23.0
49.9479 40.0
49.9683 35.0
49.9887 32.0
50.0092 32.0
50.0296 39.0
50.05 30.0
50.0705 31.0
50.0909 33.0
50.1113 27.0
50.1318 31.0
50.1522 30.0
50.1726 33.0
50.1931 25.0
50.2135 39.0
50.2339 30.0
50.2544 33.0
50.2748 31.0
50.2952 29.0
50.3157 25.0
50.3361 37.0
50.3565 34.0
50.377 22.0
50.3974 29.0
50.4178 35.0
50.4383 34.0
50.4587 29.0
50.4791 33.0
50.4996 30.0
50.52 36.0
50.5404 35.0
50.5609 26.0
50.5813 25.0
50.6017 35.0
50.6221 26.0
50.6426 26.0
50.663 29.0
50.6834 25.0
50.7039 36.0
50.7243 31.0
50.7447 35.0
50.7652 33.0
50.7856 33.0
50.806 29.0
50.8265 31.0
50.8469 35.0
50.8673 31.0
50.8878 36.0
50.9082 25.0
50.9286 42.0
50.9491 29.0
50.9695 30.0
50.9899 36.0
51.0104 35.0
51.0308 29.0
51.0512 36.0
51.0717 31.0
51.0921 35.0
51.1125 26.0
51.133 41.0
51.1534 41.0
51.1738 31.0
51.1943 33.0
51.2147 23.0
51.2351 31.0
51.2556 30.0
51.276 27.0
51.2964 35.0
51.3169 21.0
51.3373 37.0
51.3577 23.0
51.3782 25.0
51.3986 26.0
51.419 19.0
51.4395 28.0
51.4599 26.0
51.4803 16.0
51.5008 30.0
51.5212 31.0
51.5416 31.0
51.562 35.0
51.5825 29.0
51.6029 38.0
51.6233 28.0
51.6438 30.0
51.6642 23.0
51.6846 29.0
51.7051 41.0
51.7255 24.0
51.7459 42.0
51.7664 17.0
51.7868 33.0
51.8072 30.0
51.8277 35.0
51.8481 38.0
51.8685 34.0
51.889 28.0
51.9094 33.0
51.9298 34.0
51.9503 29.0
51.9707 24.0
51.9911 26.0
52.0116 32.0
52.032 24.0
52.0524 45.0
52.0729 30.0
52.0933 41.0
52.1137 24.0
52.1342 33.0
52.1546 29.0
52.175 26.0
52.1955 38.0
52.2159 35.0
52.2363 39.0
52.2568 31.0
52.2772 29.0
52.2976 35.0
52.3181 38.0
52.3385 38.0
52.3589 27.0
52.3794 29.0
52.3998 36.0
52.4202 34.0
52.4407 22.0
52.4611 37.0
52.4815 38.0
52.5019 23.0
52.5224 30.0
52.5428 30.0
52.5632 39.0
52.5837 27.0
52.6041 32.0
52.6245 30.0
52.645 35.0
52.6654 28.0
52.6858 36.0
52.7063 28.0
52.7267 30.0
52.7471 31.0
52.7676 23.0
52.788 34.0
52.8084 31.0
52.8289 32.0
52.8493 32.0
52.8697 35.0
52.8902 26.0
52.9106 21.0
52.931 21.0
52.9515 28.0
52.9719 36.0
52.9923 31.0
53.0128 26.0
53.0332 31.0
53.0536 27.0
53.0741 23.0
53.0945 34.0
53.1149 32.0
53.1354 38.0
53.1558 41.0
53.1762 29.0
53.1967 30.0
53.2171 35.0
53.2375 39.0
53.258 32.0
53.2784 27.0
53.2988 27.0
53.3193 26.0
53.3397 33.0
53.3601 26.0
53.3805 39.0
53.401 29.0
53.4214 41.0
53.4418 37.0
53.4623 31.0
53.4827 45.0
53.5031 44.0
53.5236 41.0
53.544 28.0
53.5644 41.0
53.5849 40.0
53.6053 41.0
53.6257 33.0
53.6462 28.0
53.6666 30.0
53.687 34.0
53.7075 44.0
53.7279 30.0
53.7483 41.0
53.7688 32.0
53.7892 31.0
53.8096 28.0
53.8301 38.0
53.8505 39.0
53.8709 34.0
53.8914 30.0
53.9118 40.0
53.9322 31.0
53.9527 32.0
53.9731 25.0
53.9935 33.0
54.014 32.0
54.0344 22.0
54.0548 29.0
54.0753 42.0
54.0957 33.0
54.1161 36.0
54.1366 25.0
54.157 23.0
54.1774 37.0
54.1979 36.0
54.2183 33.0
54.2387 22.0
54.2592 41.0
54.2796 23.0
54.3 29.0
54.3204 31.0
54.3409 33.0
54.3613 28.0
54.3817 21.0
54.4022 37.0
54.4226 41.0
54.443 31.0
54.4635 34.0
54.4839 32.0
54.5043 28.0
54.5248 38.0
54.5452 33.0
54.5656 33.0
54.5861 24.0
54.6065 34.0
54.6269 33.0
54.6474 36.0
54.6678 35.0
54.6882 29.0
54.7087 35.0
54.7291 42.0
54.7495 33.0
54.77 33.0
54.7904 35.0
54.8108 28.0
54.8313 42.0
54.8517 42.0
54.8721 40.0
54.8926 30.0
54.913 42.0
54.9334 31.0
54.9539 34.0
54.9743 26.0
54.9947 20.0
55.0152 23.0
55.0356 30.0
55.056 43.0
55.0765 43.0
55.0969 36.0
55.1173 32.0
55.1378 35.0
55.1582 25.0
55.1786 32.0
55.199 30.0
55.2195 19.0
55.2399 36.0
55.2603 34.0
55.2808 31.0
55.3012 28.0
55.3216 29.0
55.3421 35.0
55.3625 29.0
55.3829 31.0
55.4034 33.0
55.4238 35.0
55.4442 31.0
55.4647 25.0
55.4851 32.0
55.5055 27.0
55.526 42.0
55.5464 41.0
55.5668 33.0
55.5873 28.0
55.6077 26.0
55.6281 47.0
55.6486 38.0
55.669 35.0
55.6894 33.0
55.7099 40.0
55.7303 47.0
55.7507 39.0
55.7712 49.0
55.7916 39.0
55.812 60.0
55.8325 45.0
55.8529 67.0
55.8733 46.0
55.8938 50.0
55.9142 47.0
55.9346 54.0
55.9551 41.0
55.9755 52.0
55.9959 41.0
56.0164 42.0
56.0368 43.0
56.0572 22.0
56.0777 44.0
56.0981 26.0
56.1185 28.0
56.1389 34.0
56.1594 37.0
56.1798 25.0
56.2002 27.0
56.2207 35.0
56.2411 29.0
56.2615 24.0
56.282 32.0
56.3024 34.0
56.3228 33.0
56.3433 45.0
56.3637 31.0
56.3841 34.0
56.4046 36.0
56.425 36.0
56.4454 32.0
56.4659 48.0
56.4863 34.0
56.5067 39.0
56.5272 46.0
56.5476 35.0
56.568 40.0
56.5885 29.0
56.6089 34.0
56.6293 25.0
56.6498 38.0
56.6702 29.0
56.6906 36.0
56.7111 28.0
56.7315 32.0
56.7519 29.0
56.7724 26.0
56.7928 30.0
56.8132 34.0
56.8337 30.0
56.8541 35.0
56.8745 24.0
56.895 27.0
56.9154 22.0
56.9358 37.0
56.9563 32.0
56.9767 32.0
56.9971 41.0
57.0176 29.0
57.038 28.0
57.0584 39.0
57.0788 28.0
57.0993 30.0
57.1197 31.0
57.1401 36.0
57.1606 24.0
57.181 27.0
57.2014 39.0
57.2219 40.0
57.2423 25.0
57.2627 26.0
57.2832 38.0
57.3036 30.0
57.324 25.0
57.3445 22.0
57.3649 25.0
57.3853 34.0
57.4058 33.0
57.4262 32.0
57.4466 31.0
57.4671 32.0
57.4875 35.0
57.5079 33.0
57.5284 31.0
57.5488 31.0
57.5692 36.0
57.5897 31.0
57.6101 32.0
57.6305 36.0
57.651 26.0
57.6714 24.0
57.6918 25.0
57.7123 40.0
57.7327 38.0
57.7531 34.0
57.7736 47.0
57.794 25.0
57.8144 31.0
57.8349 32.0
57.8553 26.0
57.8757 39.0
57.8962 32.0
57.9166 33.0
57.937 31.0
57.9574 32.0
57.9779 26.0
57.9983 31.0
58.0187 38.0
58.0392 31.0
58.0596 23.0
58.08 35.0
58.1005 29.0
58.1209 36.0
58.1413 28.0
58.1618 29.0
58.1822 27.0
58.2026 25.0
58.2231 33.0
58.2435 32.0
58.2639 22.0
58.2844 31.0
58.3048 23.0
58.3252 34.0
58.3457 40.0
58.3661 27.0
58.3865 41.0
58.407 28.0
58.4274 37.0
58.4478 28.0
58.4683 35.0
58.4887 32.0
58.5091 32.0
58.5296 29.0
58.55 29.0
58.5704 47.0
58.5909 41.0
58.6113 25.0
58.6317 20.0
58.6522 36.0
58.6726 31.0
58.693 34.0
58.7135 32.0
58.7339 34.0
58.7543 23.0
58.7748 30.0
58.7952 26.0
58.8156 32.0
58.8361 34.0
58.8565 25.0
58.8769 43.0
58.8973 44.0
58.9178 33.0
58.9382 32.0
58.9586 31.0
58.9791 37.0
58.9995 46.0
59.0199 39.0
59.0404 34.0
59.0608 35.0
59.0812 47.0
59.1017 38.0
59.1221 44.0
59.1425 41.0
59.163 40.0
59.1834 46.0
59.2038 32.0
59.2243 43.0
59.2447 42.0
59.2651 47.0
59.2856 42.0
59.306 39.0
59.3264 57.0
59.3469 55.0
59.3673 57.0
59.3877 59.0
59.4082 73.0
59.4286 81.0
59.449 81.0
59.4695 103.0
59.4899 103.0
59.5103 111.0
59.5308 109.0
59.5512 97.0
59.5716 76.0
59.5921 64.0
59.6125 92.0
59.6329 86.0
59.6534 89.0
59.6738 79.0
59.6942 70.0
59.7147 80.0
59.7351 56.0
59.7555 51.0
59.7759 42.0
59.7964 56.0
59.8168 54.0
59.8372 43.0
59.8577 37.0
59.8781 48.0
59.8985 32.0
59.919 34.0
59.9394 32.0
59.9598 29.0
59.9803 35.0
60.0007 32.0
60.0211 33.0
60.0416 30.0
60.062 40.0
60.0824 35.0
60.1029 37.0
60.1233 25.0
60.1437 32.0
60.1642 29.0
60.1846 42.0
60.205 35.0
60.2255 34.0
60.2459 26.0
60.2663 34.0
60.2868 19.0
60.3072 27.0
60.3276 26.0
60.3481 38.0
60.3685 26.0
60.3889 28.0
60.4094 29.0
60.4298 34.0
60.4502 32.0
60.4707 32.0
60.4911 26.0
60.5115 28.0
60.532 40.0
60.5524 22.0
60.5728 36.0
60.5933 39.0
60.6137 39.0
60.6341 33.0
60.6546 27.0
60.675 33.0
60.6954 34.0
60.7158 31.0
60.7363 30.0
60.7567 30.0
60.7771 27.0
60.7976 31.0
60.818 30.0
60.8384 41.0
60.8589 27.0
60.8793 30.0
60.8997 25.0
60.9202 30.0
60.9406 32.0
60.961 30.0
60.9815 33.0
61.0019 30.0
61.0223 32.0
61.0428 31.0
61.0632 28.0
61.0836 28.0
61.1041 31.0
61.1245 31.0
61.1449 35.0
61.1654 23.0
61.1858 31.0
61.2062 33.0
61.2267 33.0
61.2471 31.0
61.2675 34.0
61.288 28.0
61.3084 30.0
61.3288 32.0
61.3493 38.0
61.3697 29.0
61.3901 33.0
61.4106 30.0
61.431 46.0
61.4514 28.0
61.4719 41.0
61.4923 31.0
61.5127 29.0
61.5332 48.0
61.5536 35.0
61.574 30.0
61.5945 32.0
61.6149 27.0
61.6353 28.0
61.6557 34.0
61.6762 30.0
61.6966 29.0
61.717 30.0
61.7375 28.0
61.7579 38.0
61.7783 32.0
61.7988 33.0
61.8192 34.0
61.8396 30.0
61.8601 43.0
61.8805 28.0
61.9009 29.0
61.9214 31.0
61.9418 31.0
61.9622 45.0
61.9827 28.0
62.0031 33.0
62.0235 22.0
62.044 43.0
62.0644 35.0
62.0848 30.0
62.1053 32.0
62.1257 45.0
62.1461 28.0
62.1666 28.0
62.187 38.0
62.2074 39.0
62.2279 28.0
62.2483 22.0
62.2687 45.0
62.2892 29.0
62.3096 33.0
62.33 38.0
62.3505 27.0
62.3709 42.0
62.3913 34.0
62.4118 33.0
62.4322 40.0
62.4526 44.0
62.4731 37.0
62.4935 43.0
62.5139 32.0
62.5343 45.0
62.5548 32.0
62.5752 42.0
62.5956 30.0
62.6161 33.0
62.6365 44.0
62.6569 26.0
62.6774 32.0
62.6978 31.0
62.7182 32.0
62.7387 29.0
62.7591 31.0
62.7795 33.0
62.8 33.0
62.8204 32.0
62.8408 46.0
62.8613 27.0
62.8817 30.0
62.9021 23.0
62.9226 30.0
62.943 38.0
62.9634 38.0
62.9839 28.0
63.0043 33.0
63.0247 40.0
63.0452 29.0
63.0656 29.0
63.086 24.0
63.1065 28.0
63.1269 35.0
63.1473 29.0
63.1678 30.0
63.1882 36.0
63.2086 27.0
63.2291 29.0
63.2495 21.0
63.2699 29.0
63.2904 34.0
63.3108 30.0
63.3312 35.0
63.3517 32.0
63.3721 24.0
63.3925 26.0
63.413 40.0
63.4334 33.0
63.4538 28.0
63.4742 35.0
63.4947 31.0
63.5151 38.0
63.5355 36.0
63.556 24.0
63.5764 28.0
63.5968 32.0
63.6173 29.0
63.6377 23.0
63.6581 31.0
63.6786 30.0
63.699 31.0
63.7194 32.0
63.7399 26.0
63.7603 36.0
63.7807 31.0
63.8012 28.0
63.8216 33.0
63.842 36.0
63.8625 36.0
63.8829 25.0
63.9033 30.0
63.9238 30.0
63.9442 26.0
63.9646 29.0
63.9851 37.0
64.0055 24.0
64.0259 29.0
64.0464 33.0
64.0668 36.0
64.0872 34.0
64.1077 23.0
64.1281 27.0
64.1485 35.0
64.169 33.0
64.1894 35.0
64.2098 29.0
64.2303 33.0
64.2507 27.0
64.2711 30.0
64.2916 29.0
64.312 31.0
64.3324 28.0
64.3528 28.0
64.3733 33.0
64.3937 35.0
64.4141 25.0
64.4346 31.0
64.455 28.0
64.4754 29.0
64.4959 33.0
64.5163 32.0
64.5367 29.0
64.5572 39.0
64.5776 38.0
64.598 38.0
64.6185 24.0
64.6389 29.0
64.6593 25.0
64.6798 29.0
64.7002 32.0
64.7206 36.0
64.7411 29.0
64.7615 31.0
64.7819 39.0
64.8024 38.0
64.8228 22.0
64.8432 32.0
64.8637 36.0
64.8841 35.0
64.9045 30.0
64.925 40.0
64.9454 37.0
64.9658 27.0
64.9863 36.0
65.0067 17.0
65.0271 40.0
65.0476 39.0
65.068 28.0
65.0884 35.0
65.1089 34.0
65.1293 40.0
65.1497 41.0
65.1702 43.0
65.1906 48.0
65.211 47.0
65.2315 62.0
65.2519 58.0
65.2723 85.0
65.2927 73.0
65.3132 107.0
65.3336 105.0
65.354 100.0
65.3745 120.0
65.3949 106.0
65.4153 117.0
65.4358 97.0
65.4562 94.0
65.4766 81.0
65.4971 91.0
65.5175 94.0
65.5379 94.0
65.5584 86.0
65.5788 79.0
65.5992 77.0
65.6197 65.0
65.6401 55.0
65.6605 42.0
65.681 44.0
65.7014 45.0
65.7218 43.0
65.7423 31.0
65.7627 29.0
65.7831 44.0
65.8036 41.0
65.824 45.0
65.8444 36.0
65.8649 30.0
65.8853 31.0
65.9057 31.0
65.9262 23.0
65.9466 29.0
65.967 33.0
65.9875 25.0
66.0079 32.0
66.0283 21.0
66.0488 34.0
66.0692 22.0
66.0896 30.0
66.1101 32.0
66.1305 25.0
66.1509 35.0
66.1714 29.0
66.1918 31.0
66.2122 26.0
66.2326 39.0
66.2531 30.0
66.2735 32.0
66.2939 27.0
66.3144 33.0
66.3348 33.0
66.3552 29.0
66.3757 19.0
66.3961 22.0
66.4165 33.0
66.437 35.0
66.4574 30.0
66.4778 41.0
66.4983 24.0
66.5187 27.0
66.5391 23.0
66.5596 32.0
66.58 28.0
66.6004 32.0
66.6209 19.0
66.6413 30.0
66.6617 38.0
66.6822 33.0
66.7026 30.0
66.723 30.0
66.7435 35.0
66.7639 21.0
66.7843 33.0
66.8048 30.0
66.8252 34.0
66.8456 39.0
66.8661 31.0
66.8865 34.0
66.9069 33.0
66.9274 28.0
66.9478 23.0
66.9682 25.0
66.9887 27.0
67.0091 29.0
67.0295 31.0
67.05 34.0
67.0704 34.0
67.0908 24.0
67.1112 32.0
67.1317 38.0
67.1521 26.0
67.1725 19.0
67.193 23.0
67.2134 34.0
67.2338 26.0
67.2543 37.0
67.2747 31.0
67.2951 33.0
67.3156 28.0
67.336 38.0
67.3564 30.0
67.3769 47.0
67.3973 35.0
67.4177 33.0
67.4382 33.0
67.4586 34.0
67.479 22.0
67.4995 31.0
67.5199 30.0
67.5403 27.0
67.5608 29.0
67.5812 32.0
67.6016 26.0
67.6221 30.0
67.6425 22.0
67.6629 24.0
67.6834 25.0
67.7038 27.0
67.7242 30.0
67.7447 32.0
67.7651 35.0
67.7855 27.0
67.806 25.0
67.8264 33.0
67.8468 23.0
67.8673 18.0
67.8877 30.0
67.9081 40.0
67.9286 22.0
67.949 26.0
67.9694 30.0
67.9899 22.0
68.0103 27.0
68.0307 34.0
68.0511 34.0
68.0716 27.0
68.092 33.0
68.1124 33.0
68.1329 39.0
68.1533 36.0
68.1737 50.0
68.1942 27.0
68.2146 23.0
68.235 24.0
68.2555 44.0
68.2759 23.0
68.2963 38.0
68.3168 31.0
68.3372 25.0
68.3576 18.0
68.3781 32.0
68.3985 28.0
68.4189 31.0
68.4394 25.0
68.4598 24.0
68.4802 29.0
68.5007 27.0
68.5211 30.0
68.5415 28.0
68.562 37.0
68.5824 40.0
68.6028 32.0
68.6233 32.0
68.6437 30.0
68.6641 32.0
68.6846 36.0
68.705 32.0
68.7254 33.0
68.7459 38.0
68.7663 34.0
68.7867 39.0
68.8072 48.0
68.8276 32.0
68.848 28.0
68.8685 37.0
68.8889 39.0
68.9093 36.0
68.9297 34.0
68.9502 26.0
68.9706 35.0
68.991 30.0
69.0115 24.0
69.0319 22.0
69.0523 26.0
69.0728 30.0
69.0932 28.0
69.1136 32.0
69.1341 29.0
69.1545 28.0
69.1749 24.0
69.1954 30.0
69.2158 33.0
69.2362 32.0
69.2567 41.0
69.2771 35.0
69.2975 30.0
69.318 31.0
69.3384 34.0
69.3588 26.0
69.3793 33.0
69.3997 31.0
69.4201 23.0
69.4406 26.0
69.461 33.0
69.4814 21.0
69.5019 26.0
69.5223 30.0
69.5427 28.0
69.5632 26.0
69.5836 34.0
69.604 30.0
69.6245 19.0
69.6449 31.0
69.6653 26.0
69.6858 28.0
69.7062 29.0
69.7266 36.0
69.7471 22.0
69.7675 36.0
69.7879 30.0
69.8084 28.0
69.8288 25.0
69.8492 38.0
69.8696 25.0
69.8901 23.0
69.9105 34.0
69.9309 36.0
69.9514 39.0
69.9718 30.0
69.9922 16.0
70.0127 36.0
70.0331 30.0
70.0535 31.0
70.074 25.0
70.0944 27.0
70.1148 32.0
70.1353 24.0
70.1557 25.0
70.1761 29.0
70.1966 40.0
70.217 30.0
70.2374 30.0
70.2579 28.0
70.2783 32.0
70.2987 25.0
70.3192 35.0
70.3396 23.0
70.36 30.0
70.3805 20.0
70.4009 25.0
70.4213 25.0
70.4418 22.0
70.4622 35.0
70.4826 25.0
70.5031 25.0
70.5235 33.0
70.5439 23.0
70.5644 19.0
70.5848 31.0
70.6052 22.0
70.6257 31.0
70.6461 33.0
70.6665 35.0
70.687 32.0
70.7074 27.0
70.7278 32.0
70.7483 26.0
70.7687 27.0
70.7891 34.0
70.8095 30.0
70.83 26.0
70.8504 41.0
70.8708 35.0
70.8913 34.0
70.9117 30.0
70.9321 41.0
70.9526 47.0
70.973 33.0
70.9934 27.0
71.0139 32.0
71.0343 28.0
71.0547 20.0
71.0752 32.0
71.0956 40.0
71.116 24.0
71.1365 29.0
71.1569 34.0
71.1773 26.0
71.1978 27.0
71.2182 17.0
71.2386 23.0
71.2591 27.0
71.2795 33.0
71.2999 32.0
71.3204 28.0
71.3408 29.0
71.3612 33.0
71.3817 25.0
71.4021 25.0
71.4225 37.0
71.443 28.0
71.4634 44.0
71.4838 24.0
71.5043 25.0
71.5247 27.0
71.5451 30.0
71.5656 25.0
71.586 24.0
71.6064 26.0
71.6269 31.0
71.6473 29.0
71.6677 21.0
71.6881 29.0
71.7086 34.0
71.729 19.0
71.7494 35.0
71.7699 32.0
71.7903 21.0
71.8107 30.0
71.8312 30.0
71.8516 25.0
71.872 31.0
71.8925 29.0
71.9129 34.0
71.9333 32.0
71.9538 32.0
71.9742 36.0
71.9946 19.0
72.0151 22.0
72.0355 32.0
72.0559 30.0
72.0764 32.0
72.0968 47.0
72.1172 36.0
72.1377 31.0
72.1581 27.0
72.1785 32.0
72.199 29.0
72.2194 19.0
72.2398 23.0
72.2603 31.0
72.2807 30.0
72.3011 32.0
72.3216 27.0
72.342 32.0
72.3624 32.0
72.3829 27.0
72.4033 28.0
72.4237 19.0
72.4442 20.0
72.4646 29.0
72.485 34.0
72.5055 21.0
72.5259 30.0
72.5463 31.0
72.5668 26.0
72.5872 34.0
72.6076 26.0
72.628 25.0
72.6485 30.0
72.6689 21.0
72.6893 36.0
72.7098 30.0
72.7302 24.0
72.7506 34.0
72.7711 27.0
72.7915 22.0
72.8119 29.0
72.8324 29.0
72.8528 22.0
72.8732 22.0
72.8937 24.0
72.9141 33.0
72.9345 28.0
72.955 31.0
72.9754 29.0
72.9958 34.0
73.0163 33.0
73.0367 32.0
73.0571 28.0
73.0776 25.0
73.098 29.0
73.1184 19.0
73.1389 32.0
73.1593 30.0
73.1797 37.0
73.2002 28.0
73.2206 27.0
73.241 28.0
73.2615 38.0
73.2819 31.0
73.3023 29.0
73.3228 30.0
73.3432 22.0
73.3636 33.0
73.3841 38.0
73.4045 31.0
73.4249 36.0
73.4454 35.0
73.4658 27.0
73.4862 23.0
73.5066 33.0
73.5271 38.0
73.5475 36.0
73.5679 35.0
73.5884 34.0
73.6088 34.0
73.6292 30.0
73.6497 24.0
73.6701 34.0
73.6905 24.0
73.711 32.0
73.7314 32.0
73.7518 32.0
73.7723 29.0
73.7927 31.0
73.8131 30.0
73.8336 30.0
73.854 26.0
73.8744 28.0
73.8949 28.0
73.9153 30.0
73.9357 34.0
73.9562 29.0
73.9766 40.0
73.997 30.0
74.0175 30.0
74.0379 24.0
74.0583 35.0
74.0788 41.0
74.0992 41.0
74.1196 36.0
74.1401 32.0
74.1605 24.0
74.1809 44.0
74.2014 35.0
74.2218 28.0
74.2422 45.0
74.2627 29.0
74.2831 32.0
74.3035 32.0
74.324 40.0
74.3444 33.0
74.3648 34.0
74.3853 37.0
74.4057 43.0
74.4261 47.0
74.4465 20.0
74.467 35.0
74.4874 35.0
74.5078 34.0
74.5283 36.0
74.5487 37.0
74.5691 39.0
74.5896 30.0
74.61 28.0
74.6304 28.0
74.6509 32.0
74.6713 37.0
74.6917 27.0
74.7122 39.0
74.7326 30.0
74.753 35.0
74.7735 30.0
74.7939 38.0
74.8143 28.0
74.8348 32.0
74.8552 33.0
74.8756 28.0
74.8961 29.0
74.9165 26.0
74.9369 27.0
74.9574 29.0
74.9778 25.0
74.9982 23.0
75.0187 23.0
75.0391 33.0
75.0595 35.0
75.08 26.0
75.1004 27.0
75.1208 40.0
75.1413 35.0
75.1617 28.0
75.1821 32.0
75.2026 40.0
75.223 25.0
75.2434 45.0
75.2639 38.0
75.2843 22.0
75.3047 29.0
75.3252 33.0
75.3456 35.0
75.366 26.0
75.3864 28.0
75.4069 28.0
75.4273 28.0
75.4477 31.0
75.4682 24.0
75.4886 32.0
75.509 30.0
75.5295 29.0
75.5499 22.0
75.5703 37.0
75.5908 37.0
75.6112 36.0
75.6316 28.0
75.6521 29.0
75.6725 27.0
75.6929 33.0
75.7134 36.0
75.7338 32.0
75.7542 31.0
75.7747 25.0
75.7951 26.0
75.8155 33.0
75.836 34.0
75.8564 21.0
75.8768 22.0
75.8973 20.0
75.9177 27.0
75.9381 31.0
75.9586 35.0
75.979 30.0
75.9994 32.0
76.0199 42.0
76.0403 28.0
76.0607 35.0
76.0812 27.0
76.1016 42.0
76.122 27.0
76.1425 34.0
76.1629 23.0
76.1833 37.0
76.2038 31.0
76.2242 21.0
76.2446 27.0
76.265 32.0
76.2855 27.0
76.3059 31.0
76.3263 24.0
76.3468 23.0
76.3672 28.0
76.3876 33.0
76.4081 33.0
76.4285 37.0
76.4489 19.0
76.4694 35.0
76.4898 35.0
76.5102 28.0
76.5307 28.0
76.5511 28.0
76.5715 32.0
76.592 18.0
76.6124 27.0
76.6328 25.0
76.6533 29.0
76.6737 34.0
76.6941 27.0
76.7146 27.0
76.735 35.0
76.7554 29.0
76.7759 32.0
76.7963 26.0
76.8167 27.0
76.8372 25.0
76.8576 24.0
76.878 34.0
76.8985 29.0
76.9189 28.0
76.9393 31.0
76.9598 32.0
76.9802 18.0
77.0006 36.0
77.0211 31.0
77.0415 30.0
77.0619 40.0
77.0824 28.0
77.1028 29.0
77.1232 31.0
77.1437 30.0
77.1641 33.0
77.1845 34.0
77.2049 36.0
77.2254 32.0
77.2458 30.0
77.2662 34.0
77.2867 37.0
77.3071 27.0
77.3275 32.0
77.348 28.0
77.3684 42.0
77.3888 38.0
77.4093 50.0
77.4297 48.0
77.4501 50.0
77.4706 56.0
77.491 42.0
77.5114 51.0
77.5319 35.0
77.5523 31.0
77.5727 36.0
77.5932 37.0
77.6136 44.0
77.634 29.0
77.6545 28.0
77.6749 37.0
77.6953 51.0
77.7158 43.0
77.7362 37.0
77.7566 27.0
77.7771 35.0
77.7975 38.0
77.8179 37.0
77.8384 30.0
77.8588 41.0
77.8792 37.0
77.8997 25.0
77.9201 27.0
77.9405 21.0
77.961 20.0
77.9814 34.0
78.0018 29.0
78.0223 29.0
78.0427 33.0
78.0631 35.0
78.0835 30.0
78.104 26.0
78.1244 29.0
78.1448 25.0
78.1653 32.0
78.1857 33.0
78.2061 28.0
78.2266 26.0
78.247 25.0
78.2674 29.0
78.2879 44.0
78.3083 32.0
78.3287 23.0
78.3492 26.0
78.3696 38.0
78.39 34.0
78.4105 31.0
78.4309 29.0
78.4513 45.0
78.4718 43.0
78.4922 44.0
78.5126 47.0
78.5331 49.0
78.5535 43.0
78.5739 40.0
78.5944 35.0
78.6148 41.0
78.6352 34.0
78.6557 32.0
78.6761 42.0
78.6965 31.0
78.717 27.0
78.7374 31.0
78.7578 36.0
78.7783 38.0
78.7987 37.0
78.8191 27.0
78.8396 34.0
78.86 38.0
78.8804 24.0
78.9009 30.0
78.9213 29.0
78.9417 30.0
78.9622 31.0
78.9826 44.0
79.003 29.0
79.0234 28.0
79.0439 23.0
79.0643 29.0
79.0847 36.0
79.1052 25.0
79.1256 23.0
79.146 34.0
79.1665 26.0
79.1869 31.0
79.2073 37.0
79.2278 35.0
79.2482 24.0
79.2686 36.0
79.2891 27.0
79.3095 23.0
79.3299 31.0
79.3504 37.0
79.3708 29.0
79.3912 34.0
79.4117 27.0
79.4321 26.0
79.4525 31.0
79.473 28.0
79.4934 27.0
79.5138 27.0
79.5343 38.0
79.5547 21.0
79.5751 27.0
79.5956 33.0
79.616 33.0
79.6364 26.0
79.6569 30.0
79.6773 25.0
79.6977 28.0
79.7182 33.0
79.7386 27.0
79.759 35.0
79.7795 27.0
79.7999 35.0
79.8203 27.0
79.8408 20.0
79.8612 30.0
79.8816 28.0
79.9021 27.0
79.9225 39.0
79.9429 35.0
79.9633 24.0
79.9838 30.0
80.0042 32.0
80.0246 29.0
80.0451 31.0
80.0655 22.0
80.0859 23.0
80.1064 35.0
80.1268 28.0
80.1472 40.0
80.1677 29.0
80.1881 32.0
80.2085 27.0
80.229 23.0
80.2494 23.0
80.2698 43.0
80.2903 39.0
80.3107 28.0
80.3311 28.0
80.3516 41.0
80.372 44.0
80.3924 30.0
80.4129 29.0
80.4333 31.0
80.4537 29.0
80.4742 42.0
80.4946 36.0
80.515 26.0
80.5355 37.0
80.5559 34.0
80.5763 26.0
80.5968 32.0
80.6172 22.0
80.6376 29.0
80.6581 17.0
80.6785 29.0
80.6989 39.0
80.7194 23.0
80.7398 25.0
80.7602 38.0
80.7807 36.0
80.8011 31.0
80.8215 32.0
80.8419 30.0
80.8624 30.0
80.8828 29.0
80.9032 37.0
80.9237 37.0
80.9441 32.0
80.9645 23.0
80.985 30.0
81.0054 40.0
81.0258 26.0
81.0463 29.0
81.0667 23.0
81.0871 31.0
81.1076 19.0
81.128 27.0
81.1484 30.0
81.1689 30.0
81.1893 27.0
81.2097 26.0
81.2302 30.0
81.2506 27.0
81.271 34.0
81.2915 30.0
81.3119 25.0
81.3323 35.0
81.3528 26.0
81.3732 24.0
81.3936 23.0
81.4141 23.0
81.4345 29.0
81.4549 21.0
81.4754 27.0
81.4958 38.0
81.5162 24.0
81.5367 21.0
81.5571 37.0
81.5775 34.0
81.598 29.0
81.6184 26.0
81.6388 30.0
81.6593 36.0
81.6797 26.0
81.7001 20.0
81.7206 23.0
81.741 33.0
81.7614 33.0
81.7818 29.0
81.8023 31.0
81.8227 27.0
81.8431 22.0
81.8636 25.0
81.884 32.0
81.9044 29.0
81.9249 38.0
81.9453 27.0
81.9657 23.0
81.9862 34.0
82.0066 32.0
82.027 26.0
82.0475 26.0
82.0679 28.0
82.0883 29.0
82.1088 33.0
82.1292 32.0
82.1496 28.0
82.1701 30.0
82.1905 27.0
82.2109 31.0
82.2314 35.0
82.2518 24.0
82.2722 35.0
82.2927 35.0
82.3131 30.0
82.3335 24.0
82.354 35.0
82.3744 34.0
82.3948 29.0
82.4153 35.0
82.4357 27.0
82.4561 26.0
82.4766 30.0
82.497 36.0
82.5174 33.0
82.5379 30.0
82.5583 32.0
82.5787 25.0
82.5992 31.0
82.6196 31.0
82.64 26.0
82.6604 24.0
82.6809 30.0
82.7013 25.0
82.7217 25.0
82.7422 27.0
82.7626 38.0
82.783 31.0
82.8035 37.0
82.8239 29.0
82.8443 17.0
82.8648 42.0
82.8852 35.0
82.9056 29.0
82.9261 37.0
82.9465 20.0
82.9669 25.0
82.9874 33.0
83.0078 32.0
83.0282 30.0
83.0487 36.0
83.0691 29.0
83.0895 32.0
83.11 39.0
83.1304 28.0
83.1508 31.0
83.1713 27.0
83.1917 35.0
83.2121 33.0
83.2326 28.0
83.253 34.0
83.2734 20.0
83.2939 38.0
83.3143 21.0
83.3347 31.0
83.3552 33.0
83.3756 23.0
83.396 27.0
83.4165 27.0
83.4369 19.0
83.4573 28.0
83.4778 27.0
83.4982 32.0
83.5186 28.0
83.5391 23.0
83.5595 27.0
83.5799 28.0
83.6003 29.0
83.6208 19.0
83.6412 37.0
83.6616 36.0
83.6821 36.0
83.7025 20.0
83.7229 25.0
83.7434 27.0
83.7638 29.0
83.7842 30.0
83.8047 23.0
83.8251 31.0
83.8455 22.0
83.866 31.0
83.8864 23.0
83.9068 34.0
83.9273 33.0
83.9477 34.0
83.9681 28.0
83.9886 24.0
84.009 23.0
84.0294 38.0
84.0499 34.0
84.0703 21.0
84.0907 32.0
84.1112 32.0
84.1316 33.0
84.152 25.0
84.1725 30.0
84.1929 25.0
84.2133 29.0
84.2338 30.0
84.2542 33.0
84.2746 38.0
84.2951 28.0
84.3155 28.0
84.3359 38.0
84.3564 28.0
84.3768 22.0
84.3972 29.0
84.4177 27.0
84.4381 33.0
84.4585 31.0
84.4789 28.0
84.4994 29.0
84.5198 32.0
84.5402 23.0
84.5607 44.0
84.5811 20.0
84.6015 30.0
84.622 36.0
84.6424 40.0
84.6628 25.0
84.6833 30.0
84.7037 21.0
84.7241 29.0
84.7446 23.0
84.765 31.0
84.7854 35.0
84.8059 24.0
84.8263 27.0
84.8467 24.0
84.8672 24.0
84.8876 32.0
84.908 24.0
84.9285 26.0
84.9489 33.0
84.9693 41.0
84.9898 30.0
85.0102 34.0
85.0306 34.0
85.0511 19.0
85.0715 29.0
85.0919 25.0
85.1124 32.0
85.1328 18.0
85.1532 30.0
85.1737 32.0
85.1941 30.0
85.2145 34.0
85.235 23.0
85.2554 25.0
85.2758 36.0
85.2963 31.0
85.3167 31.0
85.3371 40.0
85.3576 33.0
85.378 27.0
85.3984 23.0
85.4188 27.0
85.4393 29.0
85.4597 37.0
85.4801 30.0
85.5006 33.0
85.521 29.0
85.5414 28.0
85.5619 33.0
85.5823 30.0
85.6027 27.0
85.6232 29.0
85.6436 27.0
85.664 31.0
85.6845 31.0
85.7049 27.0
85.7253 25.0
85.7458 33.0
85.7662 28.0
85.7866 20.0
85.8071 29.0
85.8275 36.0
85.8479 25.0
85.8684 34.0
85.8888 23.0
85.9092 30.0
85.9297 33.0
85.9501 33.0
85.9705 31.0
85.991 25.0
86.0114 21.0
86.0318 29.0
86.0523 34.0
86.0727 37.0
86.0931 25.0
86.1136 29.0
86.134 28.0
86.1544 26.0
86.1749 32.0
86.1953 20.0
86.2157 31.0
86.2362 33.0
86.2566 30.0
86.277 32.0
86.2975 22.0
86.3179 31.0
86.3383 27.0
86.3587 27.0
86.3792 30.0
86.3996 23.0
86.42 31.0
86.4405 19.0
86.4609 29.0
86.4813 24.0
86.5018 23.0
86.5222 29.0
86.5426 20.0
86.5631 16.0
86.5835 29.0
86.6039 26.0
86.6244 28.0
86.6448 20.0
86.6652 22.0
86.6857 31.0
86.7061 30.0
86.7265 25.0
86.747 21.0
86.7674 29.0
86.7878 25.0
86.8083 36.0
86.8287 29.0
86.8491 30.0
86.8696 27.0
86.89 24.0
86.9104 32.0
86.9309 18.0
86.9513 27.0
86.9717 22.0
86.9922 30.0
87.0126 24.0
87.033 29.0
87.0535 38.0
87.0739 39.0
87.0943 30.0
87.1148 32.0
87.1352 20.0
87.1556 35.0
87.1761 25.0
87.1965 32.0
87.2169 29.0
87.2373 30.0
87.2578 28.0
87.2782 33.0
87.2986 19.0
87.3191 34.0
87.3395 26.0
87.3599 29.0
87.3804 21.0
87.4008 34.0
87.4212 34.0
87.4417 30.0
87.4621 36.0
87.4825 30.0
87.503 17.0
87.5234 19.0
87.5438 35.0
87.5643 24.0
87.5847 22.0
87.6051 34.0
87.6256 25.0
87.646 22.0
87.6664 37.0
87.6869 33.0
87.7073 32.0
87.7277 30.0
87.7482 37.0
87.7686 29.0
87.789 27.0
87.8095 31.0
87.8299 30.0
87.8503 26.0
87.8708 25.0
87.8912 32.0
87.9116 39.0
87.9321 29.0
87.9525 26.0
87.9729 36.0
87.9934 30.0
88.0138 30.0
88.0342 26.0
88.0547 33.0
88.0751 24.0
88.0955 15.0
88.116 34.0
88.1364 17.0
88.1568 28.0
88.1772 25.0
88.1977 26.0
88.2181 34.0
88.2385 31.0
88.259 30.0
88.2794 36.0
88.2998 32.0
88.3203 23.0
88.3407 20.0
88.3611 28.0
88.3816 30.0
88.402 22.0
88.4224 28.0
88.4429 29.0
88.4633 26.0
88.4837 33.0
88.5042 35.0
88.5246 25.0
88.545 32.0
88.5655 37.0
88.5859 26.0
88.6063 37.0
88.6268 23.0
88.6472 22.0
88.6676 32.0
88.6881 22.0
88.7085 34.0
88.7289 28.0
88.7494 32.0
88.7698 31.0
88.7902 28.0
88.8107 32.0
88.8311 27.0
88.8515 28.0
88.872 29.0
88.8924 32.0
88.9128 26.0
88.9333 37.0
88.9537 31.0
88.9741 26.0
88.9946 34.0
89.015 29.0
89.0354 36.0
89.0558 33.0
89.0763 34.0
89.0967 32.0
89.1171 32.0
89.1376 38.0
89.158 38.0
89.1784 27.0
89.1989 33.0
89.2193 36.0
89.2397 34.0
89.2602 16.0
89.2806 27.0
89.301 28.0
89.3215 33.0
89.3419 27.0
89.3623 32.0
89.3828 29.0
89.4032 44.0
89.4236 36.0
89.4441 33.0
89.4645 33.0
89.4849 32.0
89.5054 38.0
89.5258 30.0
89.5462 32.0
89.5667 30.0
89.5871 23.0
89.6075 46.0
89.628 30.0
89.6484 23.0
89.6688 37.0
89.6893 27.0
89.7097 33.0
89.7301 31.0
89.7506 37.0
89.771 23.0
89.7914 37.0
89.8119 30.0
89.8323 25.0
89.8527 28.0
89.8732 24.0
89.8936 30.0
89.914 38.0
89.9345 29.0
89.9549 31.0
89.9753 34.0
89.9957 34.0
90.0162 28.0
90.0366 25.0
90.057 32.0
90.0775 23.0
90.0979 36.0
