9.9 45.0
9.9204 45.0
9.9409 49.0
9.9613 30.0
9.9817 45.0
10.0022 34.0
10.0226 46.0
10.043 41.0
10.0635 34.0
10.0839 46.0
10.1043 42.0
10.1248 45.0
10.1452 41.0
10.1656 29.0
10.1861 52.0
10.2065 29.0
10.2269 50.0
10.2474 44.0
10.2678 37.0
10.2882 45.0
10.3087 50.0
10.3291 39.0
10.3495 44.0
10.3699 28.0
10.3904 37.0
10.4108 30.0
10.4312 51.0
10.4517 41.0
10.4721 49.0
10.4925 27.0
10.513 41.0
10.5334 34.0
10.5538 34.0
10.5743 43.0
10.5947 36.0
10.6151 47.0
10.6356 33.0
10.656 33.0
10.6764 49.0
10.6969 38.0
10.7173 37.0
10.7377 38.0
10.7582 33.0
10.7786 37.0
10.799 36.0
10.8195 36.0
10.8399 27.0
10.8603 40.0
10.8808 31.0
10.9012 28.0
10.9216 37.0
10.9421 35.0
10.9625 40.0
10.9829 30.0
11.0034 49.0
11.0238 32.0
11.0442 27.0
11.0647 37.0
11.0851 29.0
11.1055 37.0
11.126 39.0
11.1464 40.0
11.1668 32.0
11.1873 26.0
11.2077 28.0
11.2281 41.0
11.2486 33.0
11.269 31.0
11.2894 42.0
11.3098 36.0
11.3303 34.0
11.3507 33.0
11.3711 44.0
11.3916 38.0
11.412 29.0
11.4324 37.0
11.4529 37.0
11.4733 28.0
11.4937 37.0
11.5142 29.0
11.5346 43.0
11.555 29.0
11.5755 35.0
11.5959 29.0
11.6163 26.0
11.6368 36.0
11.6572 43.0
11.6776 47.0
11.6981 19.0
11.7185 34.0
11.7389 31.0
11.7594 21.0
11.7798 24.0
11.8002 34.0
11.8207 36.0
11.8411 30.0
11.8615 34.0
11.882 21.0
11.9024 30.0
11.9228 24.0
11.9433 34.0
11.9637 18.0
11.9841 29.0
12.0046 22.0
12.025 33.0
12.0454 20.0
12.0659 29.0
12.0863 31.0
12.1067 27.0
12.1272 24.0
12.1476 28.0
12.168 37.0
12.1884 38.0
12.2089 33.0
12.2293 30.0
12.2497 36.0
12.2702 30.0
12.2906 29.0
12.311 34.0
12.3315 31.0
12.3519 33.0
12.3723 35.0
12.3928 21.0
12.4132 36.0
12.4336 24.0
12.4541 25.0
12.4745 22.0
12.4949 33.0
12.5154 16.0
12.5358 17.0
12.5562 33.0
12.5767 34.0
12.5971 34.0
12.6175 31.0
12.638 25.0
12.6584 27.0
12.6788 28.0
12.6993 24.0
12.7197 27.0
12.7401 31.0
12.7606 23.0
12.781 27.0
12.8014 26.0
12.8219 22.0
12.8423 35.0
12.8627 21.0
12.8832 23.0
12.9036 22.0
12.924 18.0
12.9445 37.0
12.9649 20.0
12.9853 38.0
13.0058 21.0
13.0262 35.0
13.0466 29.0
13.0671 27.0
13.0875 27.0
13.1079 31.0
13.1283 31.0
13.1488 28.0
13.1692 30.0
13.1896 21.0
13.2101 22.0
13.2305 22.0
13.2509 28.0
13.2714 24.0
13.2918 34.0
13.3122 25.0
13.3327 25.0
13.3531 24.0
13.3735 27.0
13.394 24.0
13.4144 23.0
13.4348 17.0
13.4553 31.0
13.4757 16.0
13.4961 33.0
13.5166 25.0
13.537 22.0
13.5574 38.0
13.5779 28.0
13.5983 31.0
13.6187 23.0
13.6392 24.0
13.6596 16.0
13.68 18.0
13.7005 17.0
13.7209 20.0
13.7413 26.0
13.7618 27.0
13.7822 20.0
13.8026 23.0
13.8231 26.0
13.8435 34.0
13.8639 24.0
13.8844 17.0
13.9048 28.0
13.9252 23.0
13.9457 23.0
13.9661 19.0
13.9865 22.0
14.007 24.0
14.0274 17.0
14.0478 19.0
14.0682 23.0
14.0887 31.0
14.1091 29.0
14.1295 34.0
14.15 16.0
14.1704 23.0
14.1908 22.0
14.2113 24.0
14.2317 26.0
14.2521 20.0
14.2726 15.0
14.293 24.0
14.3134 16.0
14.3339 24.0
14.3543 14.0
14.3747 30.0
14.3952 20.0
14.4156 20.0
14.436 20.0
14.4565 35.0
14.4769 22.0
14.4973 25.0
14.5178 23.0
14.5382 19.0
14.5586 28.0
14.5791 26.0
14.5995 31.0
14.6199 20.0
14.6404 20.0
14.6608 19.0
14.6812 14.0
14.7017 28.0
14.7221 18.0
14.7425 14.0
14.763 20.0
14.7834 13.0
14.8038 17.0
14.8243 25.0
14.8447 18.0
14.8651 18.0
14.8856 15.0
14.906 20.0
14.9264 27.0
14.9468 17.0
14.9673 20.0
14.9877 18.0
15.0081 25.0
15.0286 19.0
15.049 14.0
15.0694 15.0
15.0899 17.0
15.1103 21.0
15.1307 20.0
15.1512 20.0
15.1716 16.0
15.192 24.0
15.2125 15.0
15.2329 23.0
15.2533 28.0
15.2738 19.0
15.2942 24.0
15.3146 20.0
15.3351 26.0
15.3555 27.0
15.3759 22.0
15.3964 24.0
15.4168 21.0
15.4372 21.0
15.4577 29.0
15.4781 19.0
15.4985 14.0
15.519 19.0
15.5394 13.0
15.5598 21.0
15.5803 13.0
15.6007 22.0
15.6211 16.0
15.6416 24.0
15.662 19.0
15.6824 22.0
15.7029 11.0
15.7233 21.0
15.7437 18.0
15.7642 19.0
15.7846 21.0
15.805 18.0
15.8255 14.0
15.8459 17.0
15.8663 18.0
15.8867 15.0
15.9072 20.0
15.9276 22.0
15.948 19.0
15.9685 25.0
15.9889 21.0
16.0093 18.0
16.0298 15.0
16.0502 18.0
16.0706 20.0
16.0911 15.0
16.1115 10.0
16.1319 18.0
16.1524 20.0
16.1728 13.0
16.1932 19.0
16.2137 13.0
16.2341 13.0
16.2545 23.0
16.275 19.0
16.2954 15.0
16.3158 19.0
16.3363 18.0
16.3567 31.0
16.3771 13.0
16.3976 32.0
16.418 23.0
16.4384 14.0
16.4589 27.0
16.4793 20.0
16.4997 17.0
16.5202 20.0
16.5406 21.0
16.561 13.0
16.5815 17.0
16.6019 25.0
16.6223 16.0
16.6428 19.0
16.6632 14.0
16.6836 17.0
16.7041 16.0
16.7245 21.0
16.7449 16.0
16.7653 18.0
16.7858 19.0
16.8062 20.0
16.8266 11.0
16.8471 18.0
16.8675 15.0
16.8879 20.0
16.9084 17.0
16.9288 17.0
16.9492 9.0
16.9697 31.0
16.9901 15.0
17.0105 11.0
17.031 11.0
17.0514 16.0
17.0718 22.0
17.0923 14.0
17.1127 20.0
17.1331 13.0
17.1536 18.0
17.174 18.0
17.1944 19.0
17.2149 24.0
17.2353 22.0
17.2557 22.0
17.2762 17.0
17.2966 13.0
17.317 19.0
17.3375 19.0
17.3579 24.0
17.3783 15.0
17.3988 13.0
17.4192 19.0
17.4396 13.0
17.4601 19.0
17.4805 14.0
17.5009 17.0
17.5214 14.0
17.5418 18.0
17.5622 15.0
17.5827 16.0
17.6031 20.0
17.6235 19.0
17.644 17.0
17.6644 11.0
17.6848 18.0
17.7052 19.0
17.7257 19.0
17.7461 23.0
17.7665 12.0
17.787 13.0
17.8074 14.0
17.8278 18.0
17.8483 17.0
17.8687 18.0
17.8891 17.0
17.9096 17.0
17.93 9.0
17.9504 19.0
17.9709 25.0
17.9913 18.0
18.0117 16.0
18.0322 19.0
18.0526 18.0
18.073 15.0
18.0935 13.0
18.1139 17.0
18.1343 17.0
18.1548 18.0
18.1752 19.0
18.1956 18.0
18.2161 16.0
18.2365 16.0
18.2569 22.0
18.2774 13.0
18.2978 16.0
18.3182 18.0
18.3387 14.0
18.3591 18.0
18.3795 22.0
18.4 16.0
18.4204 17.0
18.4408 23.0
18.4613 13.0
18.4817 15.0
18.5021 13.0
18.5226 17.0
18.543 16.0
18.5634 17.0
18.5839 18.0
18.6043 14.0
18.6247 14.0
18.6451 29.0
18.6656 15.0
18.686 22.0
18.7064 19.0
18.7269 16.0
18.7473 20.0
18.7677 21.0
18.7882 14.0
18.8086 15.0
18.829 15.0
18.8495 18.0
18.8699 15.0
18.8903 15.0
18.9108 21.0
18.9312 19.0
18.9516 13.0
18.9721 18.0
18.9925 15.0
19.0129 12.0
19.0334 19.0
19.0538 22.0
19.0742 10.0
19.0947 12.0
19.1151 17.0
19.1355 24.0
19.156 11.0
19.1764 19.0
19.1968 11.0
19.2173 13.0
19.2377 16.0
19.2581 5.0
19.2786 14.0
19.299 17.0
19.3194 13.0
19.3399 10.0
19.3603 19.0
19.3807 19.0
19.4012 21.0
19.4216 17.0
19.442 15.0
19.4625 13.0
19.4829 10.0
19.5033 13.0
19.5237 16.0
19.5442 15.0
19.5646 10.0
19.585 13.0
19.6055 11.0
19.6259 11.0
19.6463 15.0
19.6668 11.0
19.6872 18.0
19.7076 19.0
19.7281 13.0
19.7485 14.0
19.7689 14.0
19.7894 12.0
19.8098 13.0
19.8302 12.0
19.8507 11.0
19.8711 21.0
19.8915 21.0
19.912 18.0
19.9324 15.0
19.9528 7.0
19.9733 16.0
19.9937 7.0
20.0141 8.0
20.0346 9.0
20.055 11.0
20.0754 11.0
20.0959 8.0
20.1163 6.0
20.1367 16.0
20.1572 12.0
20.1776 10.0
20.198 19.0
20.2185 8.0
20.2389 16.0
20.2593 14.0
20.2798 12.0
20.3002 21.0
20.3206 15.0
20.3411 14.0
20.3615 11.0
20.3819 12.0
20.4024 13.0
20.4228 16.0
20.4432 9.0
20.4636 16.0
20.4841 11.0
20.5045 15.0
20.5249 9.0
20.5454 13.0
20.5658 15.0
20.5862 18.0
20.6067 11.0
20.6271 13.0
20.6475 11.0
20.668 19.0
20.6884 14.0
20.7088 22.0
20.7293 16.0
20.7497 14.0
20.7701 13.0
20.7906 8.0
20.811 10.0
20.8314 15.0
20.8519 17.0
20.8723 12.0
20.8927 11.0
20.9132 16.0
20.9336 13.0
20.954 19.0
20.9745 14.0
20.9949 20.0
21.0153 10.0
21.0358 15.0
21.0562 10.0
21.0766 10.0
21.0971 13.0
21.1175 13.0
21.1379 7.0
21.1584 10.0
21.1788 12.0
21.1992 20.0
21.2197 21.0
21.2401 13.0
21.2605 14.0
21.281 14.0
21.3014 8.0
21.3218 15.0
21.3422 10.0
21.3627 21.0
21.3831 13.0
21.4035 15.0
21.424 10.0
21.4444 10.0
21.4648 14.0
21.4853 7.0
21.5057 14.0
21.5261 10.0
21.5466 17.0
21.567 14.0
21.5874 14.0
21.6079 10.0
21.6283 8.0
21.6487 13.0
21.6692 10.0
21.6896 14.0
21.71 12.0
21.7305 10.0
21.7509 13.0
21.7713 4.0
21.7918 12.0
21.8122 18.0
21.8326 16.0
21.8531 19.0
21.8735 10.0
21.8939 16.0
21.9144 11.0
21.9348 13.0
21.9552 12.0
21.9757 11.0
21.9961 19.0
22.0165 6.0
22.037 13.0
22.0574 14.0
22.0778 13.0
22.0983 13.0
22.1187 9.0
22.1391 14.0
22.1596 11.0
22.18 12.0
22.2004 12.0
22.2209 13.0
22.2413 10.0
22.2617 12.0
22.2821 10.0
22.3026 16.0
22.323 15.0
22.3434 17.0
22.3639 11.0
22.3843 10.0
22.4047 14.0
22.4252 18.0
22.4456 12.0
22.466 17.0
22.4865 11.0
22.5069 17.0
22.5273 11.0
22.5478 13.0
22.5682 11.0
22.5886 17.0
22.6091 13.0
22.6295 15.0
22.6499 16.0
22.6704 13.0
22.6908 15.0
22.7112 19.0
22.7317 11.0
22.7521 12.0
22.7725 11.0
22.793 10.0
22.8134 6.0
22.8338 10.0
22.8543 13.0
22.8747 10.0
22.8951 16.0
22.9156 15.0
22.936 17.0
22.9564 14.0
22.9769 17.0
22.9973 25.0
23.0177 28.0
23.0382 21.0
23.0586 25.0
23.079 34.0
23.0995 40.0
23.1199 44.0
23.1403 33.0
23.1608 35.0
23.1812 27.0
23.2016 20.0
23.222 20.0
23.2425 16.0
23.2629 19.0
23.2833 12.0
23.3038 13.0
23.3242 12.0
23.3446 9.0
23.3651 16.0
23.3855 15.0
23.4059 17.0
23.4264 9.0
23.4468 9.0
23.4672 20.0
23.4877 9.0
23.5081 12.0
23.5285 7.0
23.549 9.0
23.5694 12.0
23.5898 12.0
23.6103 10.0
23.6307 9.0
23.6511 12.0
23.6716 12.0
23.692 8.0
23.7124 14.0
23.7329 17.0
23.7533 16.0
23.7737 8.0
23.7942 5.0
23.8146 9.0
23.835 14.0
23.8555 9.0
23.8759 19.0
23.8963 10.0
23.9168 11.0
23.9372 12.0
23.9576 16.0
23.9781 16.0
23.9985 14.0
24.0189 8.0
24.0394 13.0
24.0598 13.0
24.0802 12.0
24.1006 17.0
24.1211 8.0
24.1415 16.0
24.1619 12.0
24.1824 10.0
24.2028 7.0
24.2232 6.0
24.2437 13.0
24.2641 10.0
24.2845 20.0
24.305 18.0
24.3254 13.0
24.3458 18.0
24.3663 12.0
24.3867 14.0
24.4071 19.0
24.4276 21.0
24.448 18.0
24.4684 21.0
24.4889 13.0
24.5093 13.0
24.5297 28.0
24.5502 27.0
24.5706 20.0
24.591 21.0
24.6115 22.0
24.6319 18.0
24.6523 16.0
24.6728 21.0
24.6932 19.0
24.7136 18.0
24.7341 12.0
24.7545 12.0
24.7749 18.0
24.7954 11.0
24.8158 13.0
24.8362 20.0
24.8567 10.0
24.8771 13.0
24.8975 15.0
24.918 15.0
24.9384 11.0
24.9588 21.0
24.9793 14.0
24.9997 20.0
25.0201 8.0
25.0405 15.0
25.061 10.0
25.0814 23.0
25.1018 19.0
25.1223 12.0
25.1427 9.0
25.1631 13.0
25.1836 15.0
25.204 19.0
25.2244 16.0
25.2449 25.0
25.2653 24.0
25.2857 28.0
25.3062 30.0
25.3266 17.0
25.347 40.0
25.3675 33.0
25.3879 38.0
25.4083 43.0
25.4288 55.0
25.4492 88.0
25.4696 93.0
25.4901 176.0
25.5105 217.0
25.5309 279.0
25.5514 321.0
25.5718 351.0
25.5922 355.0
25.6127 411.0
25.6331 379.0
25.6535 365.0
25.674 307.0
25.6944 303.0
25.7148 244.0
25.7353 174.0
25.7557 156.0
25.7761 112.0
25.7966 72.0
25.817 61.0
25.8374 54.0
25.8579 46.0
25.8783 41.0
25.8987 31.0
25.9191 30.0
25.9396 23.0
25.96 32.0
25.9804 30.0
26.0009 22.0
26.0213 22.0
26.0417 22.0
26.0622 12.0
26.0826 23.0
26.103 17.0
26.1235 17.0
26.1439 12.0
26.1643 19.0
26.1848 10.0
26.2052 8.0
26.2256 14.0
26.2461 8.0
26.2665 19.0
26.2869 15.0
26.3074 16.0
26.3278 8.0
26.3482 12.0
26.3687 11.0
26.3891 10.0
26.4095 14.0
26.43 13.0
26.4504 16.0
26.4708 14.0
26.4913 12.0
26.5117 10.0
26.5321 10.0
26.5526 16.0
26.573 9.0
26.5934 12.0
26.6139 12.0
26.6343 9.0
26.6547 16.0
26.6752 15.0
26.6956 9.0
26.716 12.0
26.7365 14.0
26.7569 6.0
26.7773 16.0
26.7978 18.0
26.8182 16.0
26.8386 10.0
26.859 19.0
26.8795 8.0
26.8999 10.0
26.9203 8.0
26.9408 9.0
26.9612 15.0
26.9816 15.0
27.0021 16.0
27.0225 14.0
27.0429 10.0
27.0634 12.0
27.0838 20.0
27.1042 11.0
27.1247 3.0
27.1451 16.0
27.1655 10.0
27.186 6.0
27.2064 8.0
27.2268 18.0
27.2473 13.0
27.2677 14.0
27.2881 10.0
27.3086 10.0
27.329 9.0
27.3494 6.0
27.3699 17.0
27.3903 9.0
27.4107 9.0
27.4312 9.0
27.4516 6.0
27.472 10.0
27.4925 10.0
27.5129 10.0
27.5333 9.0
27.5538 11.0
27.5742 12.0
27.5946 11.0
27.6151 12.0
27.6355 9.0
27.6559 10.0
27.6764 16.0
27.6968 17.0
27.7172 12.0
27.7377 10.0
27.7581 14.0
27.7785 12.0
27.7989 13.0
27.8194 9.0
27.8398 15.0
27.8602 7.0
27.8807 14.0
27.9011 12.0
27.9215 10.0
27.942 11.0
27.9624 16.0
27.9828 13.0
28.0033 15.0
28.0237 9.0
28.0441 16.0
28.0646 17.0
28.085 13.0
28.1054 12.0
28.1259 9.0
28.1463 12.0
28.1667 12.0
28.1872 12.0
28.2076 20.0
28.228 18.0
28.2485 23.0
28.2689 23.0
28.2893 25.0
28.3098 33.0
28.3302 37.0
28.3506 27.0
28.3711 26.0
28.3915 27.0
28.4119 22.0
28.4324 20.0
28.4528 25.0
28.4732 12.0
28.4937 18.0
28.5141 18.0
28.5345 19.0
28.555 26.0
28.5754 11.0
28.5958 16.0
28.6163 19.0
28.6367 15.0
28.6571 17.0
28.6775 12.0
28.698 9.0
28.7184 18.0
28.7388 11.0
28.7593 21.0
28.7797 16.0
28.8001 11.0
28.8206 12.0
28.841 15.0
28.8614 13.0
28.8819 19.0
28.9023 12.0
28.9227 14.0
28.9432 11.0
28.9636 12.0
28.984 12.0
29.0045 9.0
29.0249 14.0
29.0453 15.0
29.0658 15.0
29.0862 13.0
29.1066 27.0
29.1271 20.0
29.1475 18.0
29.1679 15.0
29.1884 25.0
29.2088 25.0
29.2292 21.0
29.2497 21.0
29.2701 24.0
29.2905 32.0
29.311 27.0
29.3314 31.0
29.3518 40.0
29.3723 48.0
29.3927 49.0
29.4131 57.0
29.4336 101.0
29.454 157.0
29.4744 273.0
29.4949 400.0
29.5153 468.0
29.5357 542.0
29.5562 633.0
29.5766 701.0
29.597 698.0
29.6174 668.0
29.6379 659.0
29.6583 511.0
29.6787 488.0
29.6992 364.0
29.7196 279.0
29.74 194.0
29.7605 154.0
29.7809 107.0
29.8013 72.0
29.8218 66.0
29.8422 52.0
29.8626 40.0
29.8831 36.0
29.9035 50.0
29.9239 28.0
29.9444 43.0
29.9648 30.0
29.9852 20.0
30.0057 18.0
30.0261 21.0
30.0465 25.0
30.067 19.0
30.0874 9.0
30.1078 8.0
30.1283 12.0
30.1487 19.0
30.1691 10.0
30.1896 6.0
30.21 11.0
30.2304 19.0
30.2509 16.0
30.2713 10.0
30.2917 16.0
30.3122 13.0
30.3326 7.0
30.353 16.0
30.3735 12.0
30.3939 18.0
30.4143 15.0
30.4348 8.0
30.4552 18.0
30.4756 10.0
30.496 5.0
30.5165 11.0
30.5369 12.0
30.5573 11.0
30.5778 12.0
30.5982 13.0
30.6186 16.0
30.6391 13.0
30.6595 13.0
30.6799 14.0
30.7004 15.0
30.7208 17.0
30.7412 10.0
30.7617 13.0
30.7821 15.0
30.8025 18.0
30.823 12.0
30.8434 13.0
30.8638 14.0
30.8843 19.0
30.9047 7.0
30.9251 17.0
30.9456 18.0
30.966 12.0
30.9864 16.0
31.0069 9.0
31.0273 7.0
31.0477 7.0
31.0682 12.0
31.0886 7.0
31.109 7.0
31.1295 6.0
31.1499 11.0
31.1703 9.0
31.1908 10.0
31.2112 13.0
31.2316 5.0
31.2521 15.0
31.2725 8.0
31.2929 9.0
31.3134 6.0
31.3338 7.0
31.3542 12.0
31.3747 13.0
31.3951 11.0
31.4155 8.0
31.4359 9.0
31.4564 10.0
31.4768 13.0
31.4972 10.0
31.5177 16.0
31.5381 21.0
31.5585 11.0
31.579 7.0
31.5994 13.0
31.6198 8.0
31.6403 8.0
31.6607 13.0
31.6811 12.0
31.7016 10.0
31.722 31.0
31.7424 15.0
31.7629 16.0
31.7833 17.0
31.8037 20.0
31.8242 24.0
31.8446 34.0
31.865 55.0
31.8855 74.0
31.9059 71.0
31.9263 121.0
31.9468 138.0
31.9672 143.0
31.9876 170.0
32.0081 140.0
32.0285 139.0
32.0489 141.0
32.0694 115.0
32.0898 101.0
32.1102 70.0
32.1307 46.0
32.1511 49.0
32.1715 38.0
32.192 26.0
32.2124 27.0
32.2328 24.0
32.2533 17.0
32.2737 15.0
32.2941 20.0
32.3146 16.0
32.335 10.0
32.3554 13.0
32.3758 11.0
32.3963 6.0
32.4167 15.0
32.4371 10.0
32.4576 8.0
32.478 13.0
32.4984 12.0
32.5189 13.0
32.5393 19.0
32.5597 16.0
32.5802 7.0
32.6006 8.0
32.621 8.0
32.6415 11.0
32.6619 10.0
32.6823 12.0
32.7028 5.0
32.7232 11.0
32.7436 13.0
32.7641 9.0
32.7845 6.0
32.8049 9.0
32.8254 8.0
32.8458 7.0
32.8662 15.0
32.8867 11.0
32.9071 10.0
32.9275 13.0
32.948 10.0
32.9684 7.0
32.9888 11.0
33.0093 13.0
33.0297 10.0
33.0501 7.0
33.0706 8.0
33.091 8.0
33.1114 9.0
33.1319 14.0
33.1523 10.0
33.1727 6.0
33.1932 8.0
33.2136 10.0
33.234 8.0
33.2544 19.0
33.2749 10.0
33.2953 9.0
33.3157 8.0
33.3362 14.0
33.3566 12.0
33.377 7.0
33.3975 9.0
33.4179 10.0
33.4383 6.0
33.4588 7.0
33.4792 9.0
33.4996 12.0
33.5201 5.0
33.5405 7.0
33.5609 7.0
33.5814 5.0
33.6018 8.0
33.6222 10.0
33.6427 7.0
33.6631 7.0
33.6835 3.0
33.704 11.0
33.7244 6.0
33.7448 11.0
33.7653 10.0
33.7857 8.0
33.8061 8.0
33.8266 8.0
33.847 13.0
33.8674 7.0
33.8879 8.0
33.9083 12.0
33.9287 9.0
33.9492 13.0
33.9696 6.0
33.99 4.0
34.0105 12.0
34.0309 6.0
34.0513 8.0
34.0718 5.0
34.0922 10.0
34.1126 5.0
34.1331 13.0
34.1535 6.0
34.1739 7.0
34.1943 9.0
34.2148 10.0
34.2352 8.0
34.2556 10.0
34.2761 10.0
34.2965 4.0
34.3169 12.0
34.3374 10.0
34.3578 11.0
34.3782 11.0
34.3987 9.0
34.4191 11.0
34.4395 8.0
34.46 10.0
34.4804 13.0
34.5008 10.0
34.5213 6.0
34.5417 8.0
34.5621 6.0
34.5826 6.0
34.603 4.0
34.6234 8.0
34.6439 6.0
34.6643 12.0
34.6847 5.0
34.7052 11.0
34.7256 10.0
34.746 7.0
34.7665 7.0
34.7869 13.0
34.8073 8.0
34.8278 7.0
34.8482 7.0
34.8686 8.0
34.8891 9.0
34.9095 13.0
34.9299 13.0
34.9504 7.0
34.9708 7.0
34.9912 4.0
35.0117 11.0
35.0321 7.0
35.0525 8.0
35.0729 6.0
35.0934 6.0
35.1138 8.0
35.1342 2.0
35.1547 6.0
35.1751 5.0
35.1955 1.0
35.216 10.0
35.2364 5.0
35.2568 10.0
35.2773 7.0
35.2977 7.0
35.3181 7.0
35.3386 3.0
35.359 6.0
35.3794 10.0
35.3999 10.0
35.4203 6.0
35.4407 4.0
35.4612 13.0
35.4816 7.0
35.502 13.0
35.5225 17.0
35.5429 9.0
35.5633 21.0
35.5838 31.0
35.6042 32.0
35.6246 34.0
35.6451 32.0
35.6655 40.0
35.6859 37.0
35.7064 30.0
35.7268 47.0
35.7472 37.0
35.7677 33.0
35.7881 27.0
35.8085 22.0
35.829 22.0
35.8494 15.0
35.8698 9.0
35.8903 12.0
35.9107 10.0
35.9311 14.0
35.9516 6.0
35.972 10.0
35.9924 9.0
36.0128 11.0
36.0333 7.0
36.0537 15.0
36.0741 10.0
36.0946 8.0
36.115 10.0
36.1354 9.0
36.1559 10.0
36.1763 4.0
36.1967 4.0
36.2172 7.0
36.2376 6.0
36.258 5.0
36.2785 8.0
36.2989 7.0
36.3193 8.0
36.3398 6.0
36.3602 11.0
36.3806 13.0
36.4011 13.0
36.4215 16.0
36.4419 5.0
36.4624 12.0
36.4828 11.0
36.5032 11.0
36.5237 14.0
36.5441 6.0
36.5645 13.0
36.585 13.0
36.6054 7.0
36.6258 7.0
36.6463 10.0
36.6667 13.0
36.6871 9.0
36.7076 8.0
36.728 14.0
36.7484 14.0
36.7689 7.0
36.7893 9.0
36.8097 14.0
36.8302 10.0
36.8506 5.0
36.871 15.0
36.8915 6.0
36.9119 5.0
36.9323 13.0
36.9527 3.0
36.9732 7.0
36.9936 12.0
37.014 7.0
37.0345 6.0
37.0549 12.0
37.0753 8.0
37.0958 14.0
37.1162 19.0
37.1366 20.0
37.1571 20.0
37.1775 18.0
37.1979 27.0
37.2184 28.0
37.2388 18.0
37.2592 20.0
37.2797 29.0
37.3001 28.0
37.3205 16.0
37.341 25.0
37.3614 24.0
37.3818 26.0
37.4023 12.0
37.4227 23.0
37.4431 14.0
37.4636 18.0
37.484 16.0
37.5044 11.0
37.5249 15.0
37.5453 10.0
37.5657 8.0
37.5862 17.0
37.6066 9.0
37.627 12.0
37.6475 16.0
37.6679 11.0
37.6883 6.0
37.7088 14.0
37.7292 12.0
37.7496 17.0
37.7701 10.0
37.7905 11.0
37.8109 18.0
37.8313 17.0
37.8518 20.0
37.8722 16.0
37.8926 15.0
37.9131 16.0
37.9335 21.0
37.9539 27.0
37.9744 40.0
37.9948 69.0
38.0152 70.0
38.0357 62.0
38.0561 81.0
38.0765 67.0
38.097 102.0
38.1174 83.0
38.1378 74.0
38.1583 83.0
38.1787 58.0
38.1991 65.0
38.2196 56.0
38.24 49.0
38.2604 41.0
38.2809 24.0
38.3013 25.0
38.3217 32.0
38.3422 18.0
38.3626 29.0
38.383 9.0
38.4035 14.0
38.4239 15.0
38.4443 8.0
38.4648 11.0
38.4852 13.0
38.5056 9.0
38.5261 12.0
38.5465 8.0
38.5669 9.0
38.5874 12.0
38.6078 10.0
38.6282 13.0
38.6487 18.0
38.6691 13.0
38.6895 12.0
38.71 10.0
38.7304 18.0
38.7508 17.0
38.7712 19.0
38.7917 29.0
38.8121 39.0
38.8325 34.0
38.853 27.0
38.8734 25.0
38.8938 36.0
38.9143 34.0
38.9347 29.0
38.9551 38.0
38.9756 28.0
38.996 19.0
39.0164 31.0
39.0369 33.0
39.0573 31.0
39.0777 46.0
39.0982 63.0
39.1186 68.0
39.139 102.0
39.1595 96.0
39.1799 118.0
39.2003 117.0
39.2208 111.0
39.2412 129.0
39.2616 98.0
39.2821 110.0
39.3025 101.0
39.3229 66.0
39.3434 47.0
39.3638 49.0
39.3842 35.0
39.4047 35.0
39.4251 19.0
39.4455 18.0
39.466 20.0
39.4864 15.0
39.5068 9.0
39.5273 18.0
39.5477 13.0
39.5681 9.0
39.5886 13.0
39.609 14.0
39.6294 9.0
39.6498 15.0
39.6703 7.0
39.6907 2.0
39.7111 8.0
39.7316 12.0
39.752 9.0
39.7724 4.0
39.7929 7.0
39.8133 6.0
39.8337 12.0
39.8542 9.0
39.8746 11.0
39.895 6.0
39.9155 3.0
39.9359 13.0
39.9563 8.0
39.9768 14.0
39.9972 5.0
40.0176 9.0
40.0381 5.0
40.0585 9.0
40.0789 8.0
40.0994 10.0
40.1198 7.0
40.1402 9.0
40.1607 10.0
40.1811 3.0
40.2015 7.0
40.222 4.0
40.2424 11.0
40.2628 7.0
40.2833 4.0
40.3037 13.0
40.3241 13.0
40.3446 3.0
40.365 5.0
40.3854 3.0
40.4059 6.0
40.4263 7.0
40.4467 10.0
40.4672 7.0
40.4876 7.0
40.508 9.0
40.5285 5.0
40.5489 8.0
40.5693 4.0
40.5897 6.0
40.6102 3.0
40.6306 6.0
40.651 5.0
40.6715 8.0
40.6919 9.0
40.7123 8.0
40.7328 12.0
40.7532 4.0
40.7736 7.0
40.7941 10.0
40.8145 5.0
40.8349 4.0
40.8554 11.0
40.8758 11.0
40.8962 6.0
40.9167 4.0
40.9371 4.0
40.9575 16.0
40.978 7.0
40.9984 8.0
41.0188 5.0
41.0393 6.0
41.0597 11.0
41.0801 11.0
41.1006 12.0
41.121 6.0
41.1414 4.0
41.1619 4.0
41.1823 12.0
41.2027 7.0
41.2232 9.0
41.2436 7.0
41.264 6.0
41.2845 6.0
41.3049 8.0
41.3253 4.0
41.3458 8.0
41.3662 10.0
41.3866 9.0
41.4071 9.0
41.4275 6.0
41.4479 6.0
41.4684 2.0
41.4888 13.0
41.5092 7.0
41.5296 10.0
41.5501 8.0
41.5705 5.0
41.5909 13.0
41.6114 9.0
41.6318 8.0
41.6522 6.0
41.6727 11.0
41.6931 9.0
41.7135 4.0
41.734 10.0
41.7544 8.0
41.7748 7.0
41.7953 4.0
41.8157 6.0
41.8361 7.0
41.8566 3.0
41.877 6.0
41.8974 13.0
41.9179 5.0
41.9383 7.0
41.9587 7.0
41.9792 8.0
41.9996 4.0
42.02 6.0
42.0405 11.0
42.0609 8.0
42.0813 6.0
42.1018 6.0
42.1222 8.0
42.1426 8.0
42.1631 5.0
42.1835 5.0
42.2039 9.0
42.2244 9.0
42.2448 5.0
42.2652 7.0
42.2857 4.0
42.3061 7.0
42.3265 7.0
42.347 6.0
42.3674 10.0
42.3878 5.0
42.4082 11.0
42.4287 8.0
42.4491 6.0
42.4695 5.0
42.49 7.0
42.5104 8.0
42.5308 5.0
42.5513 7.0
42.5717 9.0
42.5921 8.0
42.6126 10.0
42.633 11.0
42.6534 15.0
42.6739 16.0
42.6943 26.0
42.7147 35.0
42.7352 39.0
42.7556 48.0
42.776 34.0
42.7965 46.0
42.8169 39.0
42.8373 37.0
42.8578 41.0
42.8782 50.0
42.8986 30.0
42.9191 30.0
42.9395 19.0
42.9599 18.0
42.9804 17.0
43.0008 22.0
43.0212 14.0
43.0417 13.0
43.0621 7.0
43.0825 9.0
43.103 15.0
43.1234 7.0
43.1438 6.0
43.1643 9.0
43.1847 6.0
43.2051 6.0
43.2256 10.0
43.246 12.0
43.2664 8.0
43.2869 4.0
43.3073 9.0
43.3277 7.0
43.3481 6.0
43.3686 8.0
43.389 14.0
43.4094 5.0
43.4299 7.0
43.4503 4.0
43.4707 6.0
43.4912 4.0
43.5116 4.0
43.532 6.0
43.5525 6.0
43.5729 10.0
43.5933 7.0
43.6138 4.0
43.6342 11.0
43.6546 6.0
43.6751 2.0
43.6955 5.0
43.7159 8.0
43.7364 14.0
43.7568 10.0
43.7772 3.0
43.7977 8.0
43.8181 7.0
43.8385 10.0
43.859 3.0
43.8794 10.0
43.8998 5.0
43.9203 6.0
43.9407 3.0
43.9611 9.0
43.9816 3.0
44.002 6.0
44.0224 8.0
44.0429 4.0
44.0633 6.0
44.0837 6.0
44.1042 9.0
44.1246 8.0
44.145 9.0
44.1655 9.0
44.1859 5.0
44.2063 1.0
44.2267 2.0
44.2472 6.0
44.2676 7.0
44.288 6.0
44.3085 7.0
44.3289 5.0
44.3493 8.0
44.3698 7.0
44.3902 7.0
44.4106 5.0
44.4311 13.0
44.4515 6.0
44.4719 4.0
44.4924 6.0
44.5128 7.0
44.5332 7.0
44.5537 4.0
44.5741 11.0
44.5945 7.0
44.615 8.0
44.6354 3.0
44.6558 7.0
44.6763 5.0
44.6967 7.0
44.7171 8.0
44.7376 5.0
44.758 8.0
44.7784 11.0
44.7989 3.0
44.8193 8.0
44.8397 5.0
44.8602 12.0
44.8806 4.0
44.901 5.0
44.9215 5.0
44.9419 8.0
44.9623 8.0
44.9828 8.0
45.0032 4.0
45.0236 7.0
45.0441 10.0
45.0645 4.0
45.0849 3.0
45.1054 4.0
45.1258 5.0
45.1462 8.0
45.1666 7.0
45.1871 6.0
45.2075 11.0
45.2279 7.0
45.2484 6.0
45.2688 6.0
45.2892 9.0
45.3097 6.0
45.3301 5.0
45.3505 9.0
45.371 1.0
45.3914 8.0
45.4118 4.0
45.4323 7.0
45.4527 8.0
45.4731 8.0
45.4936 6.0
45.514 5.0
45.5344 11.0
45.5549 4.0
45.5753 8.0
45.5957 8.0
45.6162 3.0
45.6366 5.0
45.657 10.0
45.6775 12.0
45.6979 8.0
45.7183 7.0
45.7388 7.0
45.7592 13.0
45.7796 11.0
45.8001 8.0
45.8205 15.0
45.8409 13.0
45.8614 12.0
45.8818 9.0
45.9022 10.0
45.9227 15.0
45.9431 12.0
45.9635 5.0
45.984 12.0
46.0044 10.0
46.0248 11.0
46.0453 14.0
46.0657 8.0
46.0861 12.0
46.1065 4.0
46.127 13.0
46.1474 14.0
46.1678 9.0
46.1883 6.0
46.2087 12.0
46.2291 15.0
46.2496 14.0
46.27 8.0
46.2904 15.0
46.3109 13.0
46.3313 12.0
46.3517 11.0
46.3722 6.0
46.3926 11.0
46.413 13.0
46.4335 11.0
46.4539 11.0
46.4743 12.0
46.4948 3.0
46.5152 9.0
46.5356 8.0
46.5561 7.0
46.5765 9.0
46.5969 7.0
46.6174 6.0
46.6378 6.0
46.6582 18.0
46.6787 12.0
46.6991 7.0
46.7195 6.0
46.74 8.0
46.7604 27.0
46.7808 27.0
46.8013 21.0
46.8217 24.0
46.8421 19.0
46.8626 20.0
46.883 17.0
46.9034 25.0
46.9239 21.0
46.9443 29.0
46.9647 19.0
46.9851 15.0
47.0056 12.0
47.026 13.0
47.0464 16.0
47.0669 10.0
47.0873 16.0
47.1077 9.0
47.1282 12.0
47.1486 6.0
47.169 12.0
47.1895 11.0
47.2099 7.0
47.2303 11.0
47.2508 7.0
47.2712 12.0
47.2916 8.0
47.3121 6.0
47.3325 14.0
47.3529 14.0
47.3734 8.0
47.3938 9.0
47.4142 16.0
47.4347 5.0
47.4551 8.0
47.4755 7.0
47.496 8.0
47.5164 7.0
47.5368 13.0
47.5573 16.0
47.5777 8.0
47.5981 13.0
47.6186 8.0
47.639 12.0
47.6594 17.0
47.6799 11.0
47.7003 22.0
47.7207 21.0
47.7412 17.0
47.7616 24.0
47.782 31.0
47.8025 42.0
47.8229 51.0
47.8433 57.0
47.8638 104.0
47.8842 113.0
47.9046 141.0
47.925 157.0
47.9455 141.0
47.9659 171.0
47.9863 147.0
48.0068 155.0
48.0272 147.0
48.0476 125.0
48.0681 138.0
48.0885 99.0
48.1089 73.0
48.1294 64.0
48.1498 74.0
48.1702 71.0
48.1907 65.0
48.2111 74.0
48.2315 88.0
48.252 101.0
48.2724 123.0
48.2928 115.0
48.3133 117.0
48.3337 124.0
48.3541 128.0
48.3746 131.0
48.395 136.0
48.4154 136.0
48.4359 125.0
48.4563 120.0
48.4767 120.0
48.4972 103.0
48.5176 95.0
48.538 76.0
48.5585 78.0
48.5789 62.0
48.5993 61.0
48.6198 63.0
48.6402 51.0
48.6606 27.0
48.6811 33.0
48.7015 26.0
48.7219 22.0
48.7424 18.0
48.7628 18.0
48.7832 18.0
48.8036 10.0
48.8241 11.0
48.8445 9.0
48.8649 15.0
48.8854 9.0
48.9058 10.0
48.9262 10.0
48.9467 6.0
48.9671 7.0
48.9875 8.0
49.008 11.0
49.0284 5.0
49.0488 10.0
49.0693 5.0
49.0897 10.0
49.1101 4.0
49.1306 8.0
49.151 10.0
49.1714 5.0
49.1919 8.0
49.2123 2.0
49.2327 6.0
49.2532 8.0
49.2736 6.0
49.294 7.0
49.3145 8.0
49.3349 10.0
49.3553 8.0
49.3758 5.0
49.3962 8.0
49.4166 10.0
49.4371 10.0
49.4575 4.0
49.4779 7.0
49.4984 7.0
49.5188 9.0
49.5392 6.0
49.5597 8.0
49.5801 5.0
49.6005 8.0
49.621 7.0
49.6414 4.0
49.6618 7.0
49.6823 5.0
49.7027 8.0
49.7231 10.0
49.7435 11.0
49.764 9.0
49.7844 4.0
49.8048 3.0
49.8253 4.0
49.8457 8.0
49.8661 6.0
49.8866 7.0
49.907 9.0
49.9274 3.0
49.9479 7.0
49.9683 8.0
49.9887 9.0
50.0092 7.0
50.0296 6.0
50.05 6.0
50.0705 2.0
50.0909 6.0
50.1113 6.0
50.1318 9.0
50.1522 3.0
50.1726 6.0
50.1931 7.0
50.2135 8.0
50.2339 4.0
50.2544 8.0
50.2748 6.0
50.2952 6.0
50.3157 8.0
50.3361 7.0
50.3565 7.0
50.377 5.0
50.3974 4.0
50.4178 12.0
50.4383 7.0
50.4587 4.0
50.4791 9.0
50.4996 7.0
50.52 8.0
50.5404 7.0
50.5609 4.0
50.5813 9.0
50.6017 6.0
50.6221 3.0
50.6426 4.0
50.663 8.0
50.6834 11.0
50.7039 4.0
50.7243 3.0
50.7447 8.0
50.7652 5.0
50.7856 11.0
50.806 4.0
50.8265 7.0
50.8469 9.0
50.8673 9.0
50.8878 6.0
50.9082 3.0
50.9286 12.0
50.9491 6.0
50.9695 8.0
50.9899 5.0
51.0104 7.0
51.0308 2.0
51.0512 9.0
51.0717 8.0
51.0921 5.0
51.1125 13.0
51.133 5.0
51.1534 2.0
51.1738 9.0
51.1943 5.0
51.2147 7.0
51.2351 5.0
51.2556 3.0
51.276 8.0
51.2964 7.0
51.3169 6.0
51.3373 4.0
51.3577 4.0
51.3782 4.0
51.3986 5.0
51.419 8.0
51.4395 6.0
51.4599 4.0
51.4803 4.0
51.5008 8.0
51.5212 5.0
51.5416 6.0
51.562 5.0
51.5825 8.0
51.6029 8.0
51.6233 8.0
51.6438 8.0
51.6642 8.0
51.6846 4.0
51.7051 9.0
51.7255 12.0
51.7459 8.0
51.7664 6.0
51.7868 13.0
51.8072 2.0
51.8277 9.0
51.8481 4.0
51.8685 6.0
51.889 6.0
51.9094 3.0
51.9298 7.0
51.9503 6.0
51.9707 4.0
51.9911 7.0
52.0116 4.0
52.032 5.0
52.0524 7.0
52.0729 5.0
52.0933 4.0
52.1137 6.0
52.1342 11.0
52.1546 2.0
52.175 6.0
52.1955 5.0
52.2159 10.0
52.2363 5.0
52.2568 10.0
52.2772 7.0
52.2976 7.0
52.3181 4.0
52.3385 5.0
52.3589 7.0
52.3794 7.0
52.3998 4.0
52.4202 5.0
52.4407 4.0
52.4611 6.0
52.4815 4.0
52.5019 11.0
52.5224 12.0
52.5428 5.0
52.5632 7.0
52.5837 5.0
52.6041 6.0
52.6245 3.0
52.645 5.0
52.6654 9.0
52.6858 5.0
52.7063 7.0
52.7267 6.0
52.7471 9.0
52.7676 8.0
52.788 7.0
52.8084 5.0
52.8289 5.0
52.8493 3.0
52.8697 5.0
52.8902 9.0
52.9106 7.0
52.931 7.0
52.9515 7.0
52.9719 6.0
52.9923 6.0
53.0128 7.0
53.0332 5.0
53.0536 9.0
53.0741 3.0
53.0945 6.0
53.1149 6.0
53.1354 3.0
53.1558 8.0
53.1762 6.0
53.1967 8.0
53.2171 4.0
53.2375 3.0
53.258 10.0
53.2784 3.0
53.2988 5.0
53.3193 8.0
53.3397 7.0
53.3601 6.0
53.3805 6.0
53.401 10.0
53.4214 9.0
53.4418 8.0
53.4623 5.0
53.4827 1.0
53.5031 6.0
53.5236 4.0
53.544 7.0
53.5644 10.0
53.5849 6.0
53.6053 8.0
53.6257 8.0
53.6462 6.0
53.6666 9.0
53.687 4.0
53.7075 8.0
53.7279 4.0
53.7483 8.0
53.7688 8.0
53.7892 12.0
53.8096 10.0
53.8301 6.0
53.8505 11.0
53.8709 15.0
53.8914 18.0
53.9118 7.0
53.9322 15.0
53.9527 14.0
53.9731 10.0
53.9935 13.0
54.014 28.0
54.0344 37.0
54.0548 31.0
54.0753 55.0
54.0957 64.0
54.1161 84.0
54.1366 74.0
54.157 63.0
54.1774 60.0
54.1979 70.0
54.2183 69.0
54.2387 64.0
54.2592 53.0
54.2796 65.0
54.3 54.0
54.3204 50.0
54.3409 49.0
54.3613 36.0
54.3817 26.0
54.4022 24.0
54.4226 21.0
54.443 15.0
54.4635 20.0
54.4839 23.0
54.5043 11.0
54.5248 17.0
54.5452 6.0
54.5656 9.0
54.5861 6.0
54.6065 10.0
54.6269 8.0
54.6474 12.0
54.6678 19.0
54.6882 7.0
54.7087 7.0
54.7291 10.0
54.7495 10.0
54.77 3.0
54.7904 11.0
54.8108 3.0
54.8313 13.0
54.8517 9.0
54.8721 10.0
54.8926 6.0
54.913 3.0
54.9334 8.0
54.9539 7.0
54.9743 3.0
54.9947 12.0
55.0152 7.0
55.0356 6.0
55.056 9.0
55.0765 14.0
55.0969 18.0
55.1173 12.0
55.1378 9.0
55.1582 12.0
55.1786 19.0
55.199 24.0
55.2195 25.0
55.2399 29.0
55.2603 52.0
55.2808 48.0
55.3012 57.0
55.3216 75.0
55.3421 67.0
55.3625 64.0
55.3829 70.0
55.4034 62.0
55.4238 74.0
55.4442 43.0
55.4647 48.0
55.4851 51.0
55.5055 35.0
55.526 32.0
55.5464 32.0
55.5668 30.0
55.5873 22.0
55.6077 28.0
55.6281 24.0
55.6486 11.0
55.669 12.0
55.6894 11.0
55.7099 9.0
55.7303 15.0
55.7507 17.0
55.7712 22.0
55.7916 21.0
55.812 23.0
55.8325 29.0
55.8529 28.0
55.8733 21.0
55.8938 27.0
55.9142 32.0
55.9346 23.0
55.9551 24.0
55.9755 23.0
55.9959 17.0
56.0164 18.0
56.0368 18.0
56.0572 20.0
56.0777 15.0
56.0981 11.0
56.1185 8.0
56.1389 8.0
56.1594 7.0
56.1798 9.0
56.2002 4.0
56.2207 5.0
56.2411 7.0
56.2615 10.0
56.282 5.0
56.3024 9.0
56.3228 4.0
56.3433 2.0
56.3637 8.0
56.3841 5.0
56.4046 1.0
56.425 3.0
56.4454 6.0
56.4659 8.0
56.4863 12.0
56.5067 5.0
56.5272 7.0
56.5476 10.0
56.568 13.0
56.5885 10.0
56.6089 10.0
56.6293 15.0
56.6498 23.0
56.6702 21.0
56.6906 20.0
56.7111 24.0
56.7315 18.0
56.7519 22.0
56.7724 19.0
56.7928 24.0
56.8132 27.0
56.8337 19.0
56.8541 23.0
56.8745 14.0
56.895 16.0
56.9154 18.0
56.9358 11.0
56.9563 11.0
56.9767 10.0
56.9971 9.0
57.0176 7.0
57.038 9.0
57.0584 6.0
57.0788 3.0
57.0993 6.0
57.1197 6.0
57.1401 8.0
57.1606 9.0
57.181 6.0
57.2014 6.0
57.2219 5.0
57.2423 12.0
57.2627 7.0
57.2832 3.0
57.3036 7.0
57.324 6.0
57.3445 3.0
57.3649 6.0
57.3853 7.0
57.4058 8.0
57.4262 6.0
57.4466 9.0
57.4671 2.0
57.4875 5.0
57.5079 11.0
57.5284 4.0
57.5488 4.0
57.5692 5.0
57.5897 6.0
57.6101 8.0
57.6305 4.0
57.651 7.0
57.6714 3.0
57.6918 1.0
57.7123 3.0
57.7327 1.0
57.7531 5.0
57.7736 5.0
57.794 3.0
57.8144 3.0
57.8349 2.0
57.8553 3.0
57.8757 3.0
57.8962 9.0
57.9166 4.0
57.937 1.0
57.9574 6.0
57.9779 6.0
57.9983 10.0
58.0187 6.0
58.0392 3.0
58.0596 5.0
58.08 5.0
58.1005 6.0
58.1209 5.0
58.1413 4.0
58.1618 2.0
58.1822 8.0
58.2026 8.0
58.2231 1.0
58.2435 5.0
58.2639 2.0
58.2844 5.0
58.3048 6.0
58.3252 5.0
58.3457 3.0
58.3661 4.0
58.3865 5.0
58.407 5.0
58.4274 2.0
58.4478 5.0
58.4683 8.0
58.4887 3.0
58.5091 11.0
58.5296 3.0
58.55 6.0
58.5704 4.0
58.5909 2.0
58.6113 7.0
58.6317 4.0
58.6522 2.0
58.6726 8.0
58.693 5.0
58.7135 7.0
58.7339 9.0
58.7543 5.0
58.7748 5.0
58.7952 5.0
58.8156 8.0
58.8361 5.0
58.8565 7.0
58.8769 2.0
58.8973 2.0
58.9178 5.0
58.9382 5.0
58.9586 7.0
58.9791 5.0
58.9995 9.0
59.0199 8.0
59.0404 9.0
59.0608 6.0
59.0812 4.0
59.1017 3.0
59.1221 5.0
59.1425 4.0
59.163 5.0
59.1834 7.0
59.2038 1.0
59.2243 7.0
59.2447 9.0
59.2651 4.0
59.2856 6.0
59.306 6.0
59.3264 7.0
59.3469 9.0
59.3673 6.0
59.3877 8.0
59.4082 4.0
59.4286 6.0
59.449 9.0
59.4695 5.0
59.4899 6.0
59.5103 6.0
59.5308 4.0
59.5512 7.0
59.5716 5.0
59.5921 5.0
59.6125 3.0
59.6329 10.0
59.6534 6.0
59.6738 8.0
59.6942 7.0
59.7147 6.0
59.7351 2.0
59.7555 7.0
59.7759 7.0
59.7964 3.0
59.8168 6.0
59.8372 3.0
59.8577 5.0
59.8781 8.0
59.8985 4.0
59.919 3.0
59.9394 5.0
59.9598 10.0
59.9803 7.0
60.0007 13.0
60.0211 11.0
60.0416 13.0
60.062 6.0
60.0824 15.0
60.1029 15.0
60.1233 14.0
60.1437 13.0
60.1642 17.0
60.1846 17.0
60.205 6.0
60.2255 11.0
60.2459 9.0
60.2663 9.0
60.2868 10.0
60.3072 6.0
60.3276 7.0
60.3481 4.0
60.3685 10.0
60.3889 3.0
60.4094 3.0
60.4298 6.0
60.4502 6.0
60.4707 2.0
60.4911 6.0
60.5115 8.0
60.532 2.0
60.5524 6.0
60.5728 6.0
60.5933 5.0
60.6137 6.0
60.6341 8.0
60.6546 11.0
60.675 5.0
60.6954 4.0
60.7158 5.0
60.7363 6.0
60.7567 7.0
60.7771 10.0
60.7976 10.0
60.818 10.0
60.8384 4.0
60.8589 8.0
60.8793 7.0
60.8997 10.0
60.9202 7.0
60.9406 10.0
60.961 7.0
60.9815 13.0
61.0019 6.0
61.0223 8.0
61.0428 9.0
61.0632 6.0
61.0836 8.0
61.1041 5.0
61.1245 10.0
61.1449 8.0
61.1654 6.0
61.1858 7.0
61.2062 2.0
61.2267 10.0
61.2471 5.0
61.2675 8.0
61.288 6.0
61.3084 4.0
61.3288 9.0
61.3493 9.0
61.3697 6.0
61.3901 9.0
61.4106 7.0
61.431 5.0
61.4514 14.0
61.4719 11.0
61.4923 16.0
61.5127 16.0
61.5332 15.0
61.5536 26.0
61.574 18.0
61.5945 23.0
61.6149 27.0
61.6353 14.0
61.6557 14.0
61.6762 19.0
61.6966 19.0
61.717 11.0
61.7375 19.0
61.7579 21.0
61.7783 14.0
61.7988 9.0
61.8192 13.0
61.8396 9.0
61.8601 8.0
61.8805 12.0
61.9009 6.0
61.9214 6.0
61.9418 5.0
61.9622 5.0
61.9827 6.0
62.0031 2.0
62.0235 3.0
62.044 5.0
62.0644 6.0
62.0848 6.0
62.1053 16.0
62.1257 4.0
62.1461 7.0
62.1666 8.0
62.187 4.0
62.2074 7.0
62.2279 15.0
62.2483 16.0
62.2687 19.0
62.2892 11.0
62.3096 21.0
62.33 27.0
62.3505 8.0
62.3709 13.0
62.3913 17.0
62.4118 19.0
62.4322 24.0
62.4526 22.0
62.4731 28.0
62.4935 25.0
62.5139 32.0
62.5343 25.0
62.5548 18.0
62.5752 19.0
62.5956 22.0
62.6161 13.0
62.6365 15.0
62.6569 16.0
62.6774 17.0
62.6978 12.0
62.7182 22.0
62.7387 15.0
62.7591 15.0
62.7795 17.0
62.8 16.0
62.8204 31.0
62.8408 28.0
62.8613 32.0
62.8817 38.0
62.9021 61.0
62.9226 56.0
62.943 53.0
62.9634 45.0
62.9839 49.0
63.0043 41.0
63.0247 37.0
63.0452 42.0
63.0656 39.0
63.086 32.0
63.1065 41.0
63.1269 26.0
63.1473 28.0
63.1678 29.0
63.1882 30.0
63.2086 15.0
63.2291 20.0
63.2495 14.0
63.2699 19.0
63.2904 9.0
63.3108 11.0
63.3312 9.0
63.3517 9.0
63.3721 12.0
63.3925 7.0
63.413 9.0
63.4334 4.0
63.4538 13.0
63.4742 4.0
63.4947 5.0
63.5151 7.0
63.5355 8.0
63.556 5.0
63.5764 7.0
63.5968 8.0
63.6173 10.0
63.6377 9.0
63.6581 12.0
63.6786 19.0
63.699 20.0
63.7194 17.0
63.7399 15.0
63.7603 16.0
63.7807 17.0
63.8012 10.0
63.8216 17.0
63.842 12.0
63.8625 7.0
63.8829 10.0
63.9033 10.0
63.9238 14.0
63.9442 8.0
63.9646 10.0
63.9851 13.0
64.0055 11.0
64.0259 4.0
64.0464 15.0
64.0668 3.0
64.0872 6.0
64.1077 3.0
64.1281 3.0
64.1485 9.0
64.169 4.0
64.1894 4.0
64.2098 4.0
64.2303 5.0
64.2507 4.0
64.2711 8.0
64.2916 4.0
64.312 6.0
64.3324 4.0
64.3528 11.0
64.3733 5.0
64.3937 8.0
64.4141 3.0
64.4346 4.0
64.455 3.0
64.4754 6.0
64.4959 5.0
64.5163 6.0
64.5367 5.0
64.5572 1.0
64.5776 6.0
64.598 3.0
64.6185 1.0
64.6389 6.0
64.6593 3.0
64.6798 9.0
64.7002 1.0
64.7206 4.0
64.7411 9.0
64.7615 1.0
64.7819 3.0
64.8024 6.0
64.8228 13.0
64.8432 7.0
64.8637 4.0
64.8841 1.0
64.9045 1.0
64.925 6.0
64.9454 4.0
64.9658 4.0
64.9863 5.0
65.0067 8.0
65.0271 5.0
65.0476 5.0
65.068 5.0
65.0884 6.0
65.1089 4.0
65.1293 6.0
65.1497 4.0
65.1702 4.0
65.1906 6.0
65.211 5.0
65.2315 3.0
65.2519 2.0
65.2723 7.0
65.2927 2.0
65.3132 7.0
65.3336 4.0
65.354 2.0
65.3745 5.0
65.3949 2.0
65.4153 8.0
65.4358 2.0
65.4562 3.0
65.4766 3.0
65.4971 3.0
65.5175 8.0
65.5379 8.0
65.5584 5.0
65.5788 4.0
65.5992 5.0
65.6197 6.0
65.6401 10.0
65.6605 3.0
65.681 6.0
65.7014 3.0
65.7218 6.0
65.7423 4.0
65.7627 7.0
65.7831 8.0
65.8036 12.0
65.824 4.0
65.8444 6.0
65.8649 9.0
65.8853 6.0
65.9057 4.0
65.9262 6.0
65.9466 4.0
65.967 5.0
65.9875 1.0
66.0079 2.0
66.0283 5.0
66.0488 7.0
66.0692 9.0
66.0896 6.0
66.1101 5.0
66.1305 8.0
66.1509 11.0
66.1714 6.0
66.1918 9.0
66.2122 5.0
66.2326 9.0
66.2531 12.0
66.2735 11.0
66.2939 6.0
66.3144 11.0
66.3348 9.0
66.3552 16.0
66.3757 11.0
66.3961 18.0
66.4165 25.0
66.437 21.0
66.4574 29.0
66.4778 23.0
66.4983 18.0
66.5187 19.0
66.5391 11.0
66.5596 15.0
66.58 17.0
66.6004 21.0
66.6209 16.0
66.6413 21.0
66.6617 19.0
66.6822 10.0
66.7026 11.0
66.723 12.0
66.7435 10.0
66.7639 11.0
66.7843 8.0
66.8048 10.0
66.8252 5.0
66.8456 4.0
66.8661 5.0
66.8865 2.0
66.9069 7.0
66.9274 7.0
66.9478 8.0
66.9682 7.0
66.9887 2.0
67.0091 3.0
67.0295 6.0
67.05 6.0
67.0704 5.0
67.0908 3.0
67.1112 2.0
67.1317 6.0
67.1521 5.0
67.1725 9.0
67.193 6.0
67.2134 11.0
67.2338 4.0
67.2543 5.0
67.2747 8.0
67.2951 9.0
67.3156 4.0
67.336 2.0
67.3564 9.0
67.3769 3.0
67.3973 4.0
67.4177 3.0
67.4382 8.0
67.4586 8.0
67.479 7.0
67.4995 6.0
67.5199 1.0
67.5403 5.0
67.5608 6.0
67.5812 6.0
67.6016 3.0
67.6221 7.0
67.6425 7.0
67.6629 5.0
67.6834 4.0
67.7038 4.0
67.7242 7.0
67.7447 3.0
67.7651 4.0
67.7855 6.0
67.806 3.0
67.8264 5.0
67.8468 8.0
67.8673 4.0
67.8877 7.0
67.9081 7.0
67.9286 5.0
67.949 6.0
67.9694 8.0
67.9899 9.0
68.0103 4.0
68.0307 5.0
68.0511 4.0
68.0716 7.0
68.092 6.0
68.1124 0.0
68.1329 2.0
68.1533 4.0
68.1737 5.0
68.1942 6.0
68.2146 8.0
68.235 1.0
68.2555 3.0
68.2759 0.0
68.2963 1.0
68.3168 6.0
68.3372 3.0
68.3576 6.0
68.3781 7.0
68.3985 5.0
68.4189 5.0
68.4394 1.0
68.4598 5.0
68.4802 3.0
68.5007 6.0
68.5211 4.0
68.5415 2.0
68.562 7.0
68.5824 5.0
68.6028 2.0
68.6233 5.0
68.6437 3.0
68.6641 10.0
68.6846 21.0
68.705 11.0
68.7254 11.0
68.7459 18.0
68.7663 15.0
68.7867 17.0
68.8072 13.0
68.8276 13.0
68.848 12.0
68.8685 12.0
68.8889 20.0
68.9093 16.0
68.9297 32.0
68.9502 32.0
68.9706 32.0
68.991 21.0
69.0115 28.0
69.0319 23.0
69.0523 23.0
69.0728 25.0
69.0932 23.0
69.1136 19.0
69.1341 17.0
69.1545 16.0
69.1749 17.0
69.1954 14.0
69.2158 14.0
69.2362 21.0
69.2567 19.0
69.2771 19.0
69.2975 7.0
69.318 8.0
69.3384 8.0
69.3588 2.0
69.3793 3.0
69.3997 10.0
69.4201 4.0
69.4406 6.0
69.461 5.0
69.4814 2.0
69.5019 6.0
69.5223 5.0
69.5427 5.0
69.5632 7.0
69.5836 4.0
69.604 4.0
69.6245 6.0
69.6449 2.0
69.6653 5.0
69.6858 2.0
69.7062 5.0
69.7266 8.0
69.7471 4.0
69.7675 1.0
69.7879 3.0
69.8084 3.0
69.8288 4.0
69.8492 5.0
69.8696 6.0
69.8901 5.0
69.9105 3.0
69.9309 7.0
69.9514 5.0
69.9718 8.0
69.9922 2.0
70.0127 8.0
70.0331 6.0
70.0535 7.0
70.074 6.0
70.0944 8.0
70.1148 2.0
70.1353 8.0
70.1557 4.0
70.1761 4.0
70.1966 3.0
70.217 4.0
70.2374 4.0
70.2579 7.0
70.2783 10.0
70.2987 5.0
70.3192 17.0
70.3396 10.0
70.36 10.0
70.3805 9.0
70.4009 11.0
70.4213 14.0
70.4418 13.0
70.4622 15.0
70.4826 27.0
70.5031 30.0
70.5235 33.0
70.5439 26.0
70.5644 19.0
70.5848 25.0
70.6052 32.0
70.6257 28.0
70.6461 21.0
70.6665 22.0
70.687 18.0
70.7074 15.0
70.7278 20.0
70.7483 24.0
70.7687 21.0
70.7891 14.0
70.8095 9.0
70.83 9.0
70.8504 7.0
70.8708 7.0
70.8913 11.0
70.9117 11.0
70.9321 10.0
70.9526 6.0
70.973 5.0
70.9934 6.0
71.0139 4.0
71.0343 4.0
71.0547 3.0
71.0752 11.0
71.0956 7.0
71.116 5.0
71.1365 3.0
71.1569 9.0
71.1773 7.0
71.1978 2.0
71.2182 2.0
71.2386 1.0
71.2591 2.0
71.2795 1.0
71.2999 5.0
71.3204 4.0
71.3408 9.0
71.3612 2.0
71.3817 3.0
71.4021 5.0
71.4225 8.0
71.443 2.0
71.4634 3.0
71.4838 7.0
71.5043 10.0
71.5247 7.0
71.5451 6.0
71.5656 4.0
71.586 3.0
71.6064 9.0
71.6269 5.0
71.6473 4.0
71.6677 1.0
71.6881 3.0
71.7086 5.0
71.729 5.0
71.7494 10.0
71.7699 2.0
71.7903 1.0
71.8107 3.0
71.8312 7.0
71.8516 3.0
71.872 4.0
71.8925 4.0
71.9129 5.0
71.9333 5.0
71.9538 6.0
71.9742 3.0
71.9946 7.0
72.0151 4.0
72.0355 6.0
72.0559 6.0
72.0764 5.0
72.0968 5.0
72.1172 6.0
72.1377 3.0
72.1581 3.0
72.1785 2.0
72.199 7.0
72.2194 5.0
72.2398 2.0
72.2603 4.0
72.2807 5.0
72.3011 3.0
72.3216 2.0
72.342 10.0
72.3624 5.0
72.3829 2.0
72.4033 2.0
72.4237 16.0
72.4442 5.0
72.4646 3.0
72.485 9.0
72.5055 8.0
72.5259 8.0
72.5463 9.0
72.5668 8.0
72.5872 8.0
72.6076 9.0
72.628 7.0
72.6485 7.0
72.6689 7.0
72.6893 1.0
72.7098 6.0
72.7302 11.0
72.7506 5.0
72.7711 7.0
72.7915 6.0
72.8119 8.0
72.8324 9.0
72.8528 5.0
72.8732 9.0
72.8937 3.0
72.9141 6.0
72.9345 6.0
72.955 4.0
72.9754 4.0
72.9958 8.0
73.0163 1.0
73.0367 1.0
73.0571 4.0
73.0776 3.0
73.098 6.0
73.1184 4.0
73.1389 4.0
73.1593 2.0
73.1797 3.0
73.2002 5.0
73.2206 4.0
73.241 3.0
73.2615 2.0
73.2819 3.0
73.3023 3.0
73.3228 7.0
73.3432 7.0
73.3636 9.0
73.3841 10.0
73.4045 5.0
73.4249 1.0
73.4454 4.0
73.4658 3.0
73.4862 3.0
73.5066 2.0
73.5271 2.0
73.5475 2.0
73.5679 6.0
73.5884 4.0
73.6088 2.0
73.6292 5.0
73.6497 2.0
73.6701 6.0
73.6905 3.0
73.711 4.0
73.7314 4.0
73.7518 2.0
73.7723 6.0
73.7927 2.0
73.8131 10.0
73.8336 5.0
73.854 10.0
73.8744 1.0
73.8949 5.0
73.9153 1.0
73.9357 4.0
73.9562 2.0
73.9766 5.0
73.997 4.0
74.0175 1.0
74.0379 6.0
74.0583 8.0
74.0788 5.0
74.0992 8.0
74.1196 5.0
74.1401 5.0
74.1605 4.0
74.1809 2.0
74.2014 4.0
74.2218 8.0
74.2422 5.0
74.2627 4.0
74.2831 8.0
74.3035 4.0
74.324 3.0
74.3444 5.0
74.3648 3.0
74.3853 6.0
74.4057 8.0
74.4261 5.0
74.4465 4.0
74.467 3.0
74.4874 3.0
74.5078 5.0
74.5283 9.0
74.5487 6.0
74.5691 3.0
74.5896 9.0
74.61 5.0
74.6304 4.0
74.6509 3.0
74.6713 4.0
74.6917 5.0
74.7122 3.0
74.7326 4.0
74.753 8.0
74.7735 12.0
74.7939 2.0
74.8143 2.0
74.8348 4.0
74.8552 5.0
74.8756 7.0
74.8961 2.0
74.9165 7.0
74.9369 7.0
74.9574 7.0
74.9778 9.0
74.9982 7.0
75.0187 6.0
75.0391 11.0
75.0595 11.0
75.08 13.0
75.1004 6.0
75.1208 6.0
75.1413 16.0
75.1617 14.0
75.1821 23.0
75.2026 32.0
75.223 20.0
75.2434 35.0
75.2639 27.0
75.2843 39.0
75.3047 43.0
75.3252 31.0
75.3456 35.0
75.366 27.0
75.3864 31.0
75.4069 30.0
75.4273 21.0
75.4477 16.0
75.4682 18.0
75.4886 26.0
75.509 23.0
75.5295 24.0
75.5499 18.0
75.5703 19.0
75.5908 15.0
75.6112 7.0
75.6316 10.0
75.6521 12.0
75.6725 3.0
75.6929 10.0
75.7134 3.0
75.7338 12.0
75.7542 0.0
75.7747 5.0
75.7951 8.0
75.8155 7.0
75.836 2.0
75.8564 9.0
75.8768 4.0
75.8973 5.0
75.9177 3.0
75.9381 5.0
75.9586 5.0
75.979 3.0
75.9994 6.0
76.0199 7.0
76.0403 2.0
76.0607 2.0
76.0812 3.0
76.1016 8.0
76.122 4.0
76.1425 6.0
76.1629 8.0
76.1833 8.0
76.2038 17.0
76.2242 10.0
76.2446 9.0
76.265 17.0
76.2855 11.0
76.3059 12.0
76.3263 12.0
76.3468 11.0
76.3672 9.0
76.3876 10.0
76.4081 10.0
76.4285 6.0
76.4489 9.0
76.4694 10.0
76.4898 8.0
76.5102 11.0
76.5307 15.0
76.5511 11.0
76.5715 5.0
76.592 5.0
76.6124 8.0
76.6328 8.0
76.6533 3.0
76.6737 4.0
76.6941 10.0
76.7146 3.0
76.735 3.0
76.7554 4.0
76.7759 4.0
76.7963 4.0
76.8167 4.0
76.8372 6.0
76.8576 3.0
76.878 8.0
76.8985 2.0
76.9189 4.0
76.9393 3.0
76.9598 4.0
76.9802 5.0
77.0006 3.0
77.0211 3.0
77.0415 8.0
77.0619 3.0
77.0824 4.0
77.1028 2.0
77.1232 2.0
77.1437 8.0
77.1641 6.0
77.1845 4.0
77.2049 7.0
77.2254 2.0
77.2458 4.0
77.2662 3.0
77.2867 10.0
77.3071 6.0
77.3275 5.0
77.348 1.0
77.3684 3.0
77.3888 12.0
77.4093 8.0
77.4297 4.0
77.4501 6.0
77.4706 6.0
77.491 9.0
77.5114 8.0
77.5319 10.0
77.5523 10.0
77.5727 13.0
77.5932 13.0
77.6136 6.0
77.634 9.0
77.6545 4.0
77.6749 5.0
77.6953 8.0
77.7158 6.0
77.7362 1.0
77.7566 5.0
77.7771 7.0
77.7975 7.0
77.8179 11.0
77.8384 2.0
77.8588 6.0
77.8792 5.0
77.8997 2.0
77.9201 8.0
77.9405 4.0
77.961 1.0
77.9814 6.0
78.0018 4.0
78.0223 3.0
78.0427 1.0
78.0631 1.0
78.0835 4.0
78.104 6.0
78.1244 5.0
78.1448 3.0
78.1653 2.0
78.1857 4.0
78.2061 3.0
78.2266 6.0
78.247 3.0
78.2674 5.0
78.2879 7.0
78.3083 5.0
78.3287 6.0
78.3492 8.0
78.3696 5.0
78.39 4.0
78.4105 2.0
78.4309 5.0
78.4513 4.0
78.4718 5.0
78.4922 7.0
78.5126 3.0
78.5331 5.0
78.5535 5.0
78.5739 4.0
78.5944 4.0
78.6148 5.0
78.6352 5.0
78.6557 2.0
78.6761 2.0
78.6965 6.0
78.717 3.0
78.7374 4.0
78.7578 5.0
78.7783 6.0
78.7987 3.0
78.8191 3.0
78.8396 4.0
78.86 4.0
78.8804 3.0
78.9009 4.0
78.9213 5.0
78.9417 4.0
78.9622 3.0
78.9826 5.0
79.003 5.0
79.0234 5.0
79.0439 9.0
79.0643 2.0
79.0847 4.0
79.1052 1.0
79.1256 3.0
79.146 3.0
79.1665 3.0
79.1869 9.0
79.2073 4.0
79.2278 6.0
79.2482 3.0
79.2686 4.0
79.2891 5.0
79.3095 5.0
79.3299 2.0
79.3504 3.0
79.3708 1.0
79.3912 4.0
79.4117 4.0
79.4321 6.0
79.4525 3.0
79.473 7.0
79.4934 2.0
79.5138 3.0
79.5343 4.0
79.5547 4.0
79.5751 2.0
79.5956 3.0
79.616 3.0
79.6364 3.0
79.6569 6.0
79.6773 4.0
79.6977 3.0
79.7182 5.0
79.7386 1.0
79.759 3.0
79.7795 5.0
79.7999 5.0
79.8203 12.0
79.8408 5.0
79.8612 4.0
79.8816 1.0
79.9021 4.0
79.9225 3.0
79.9429 4.0
79.9633 2.0
79.9838 4.0
80.0042 2.0
80.0246 5.0
80.0451 3.0
80.0655 8.0
80.0859 4.0
80.1064 3.0
80.1268 1.0
80.1472 3.0
80.1677 6.0
80.1881 4.0
80.2085 6.0
80.229 3.0
80.2494 2.0
80.2698 9.0
80.2903 4.0
80.3107 2.0
80.3311 4.0
80.3516 4.0
80.372 3.0
80.3924 5.0
80.4129 7.0
80.4333 3.0
80.4537 2.0
80.4742 2.0
80.4946 4.0
80.515 4.0
80.5355 4.0
80.5559 6.0
80.5763 3.0
80.5968 4.0
80.6172 9.0
80.6376 5.0
80.6581 6.0
80.6785 7.0
80.6989 5.0
80.7194 3.0
80.7398 4.0
80.7602 4.0
80.7807 2.0
80.8011 4.0
80.8215 6.0
80.8419 4.0
80.8624 8.0
80.8828 4.0
80.9032 6.0
80.9237 2.0
80.9441 3.0
80.9645 5.0
80.985 6.0
81.0054 6.0
81.0258 4.0
81.0463 4.0
81.0667 10.0
81.0871 3.0
81.1076 5.0
81.128 1.0
81.1484 1.0
81.1689 5.0
81.1893 11.0
81.2097 8.0
81.2302 10.0
81.2506 5.0
81.271 10.0
81.2915 7.0
81.3119 10.0
81.3323 8.0
81.3528 6.0
81.3732 6.0
81.3936 5.0
81.4141 7.0
81.4345 8.0
81.4549 11.0
81.4754 5.0
81.4958 5.0
81.5162 6.0
81.5367 8.0
81.5571 6.0
81.5775 8.0
81.598 4.0
81.6184 3.0
81.6388 2.0
81.6593 7.0
81.6797 5.0
81.7001 3.0
81.7206 4.0
81.741 3.0
81.7614 1.0
81.7818 4.0
81.8023 5.0
81.8227 3.0
81.8431 2.0
81.8636 8.0
81.884 5.0
81.9044 5.0
81.9249 2.0
81.9453 4.0
81.9657 6.0
81.9862 9.0
82.0066 3.0
82.027 4.0
82.0475 4.0
82.0679 3.0
82.0883 4.0
82.1088 5.0
82.1292 6.0
82.1496 4.0
82.1701 3.0
82.1905 6.0
82.2109 7.0
82.2314 9.0
82.2518 6.0
82.2722 4.0
82.2927 6.0
82.3131 3.0
82.3335 9.0
82.354 11.0
82.3744 10.0
82.3948 12.0
82.4153 6.0
82.4357 11.0
82.4561 10.0
82.4766 7.0
82.497 13.0
82.5174 17.0
82.5379 7.0
82.5583 14.0
82.5787 11.0
82.5992 13.0
82.6196 7.0
82.64 19.0
82.6604 8.0
82.6809 14.0
82.7013 10.0
82.7217 16.0
82.7422 9.0
82.7626 18.0
82.783 16.0
82.8035 15.0
82.8239 15.0
82.8443 18.0
82.8648 24.0
82.8852 25.0
82.9056 21.0
82.9261 23.0
82.9465 21.0
82.9669 18.0
82.9874 23.0
83.0078 13.0
83.0282 11.0
83.0487 15.0
83.0691 12.0
83.0895 15.0
83.11 13.0
83.1304 23.0
83.1508 18.0
83.1713 13.0
83.1917 9.0
83.2121 6.0
83.2326 9.0
83.253 8.0
83.2734 10.0
83.2939 12.0
83.3143 12.0
83.3347 15.0
83.3552 11.0
83.3756 14.0
83.396 6.0
83.4165 9.0
83.4369 9.0
83.4573 3.0
83.4778 6.0
83.4982 2.0
83.5186 11.0
83.5391 5.0
83.5595 5.0
83.5799 6.0
83.6003 9.0
83.6208 5.0
83.6412 2.0
83.6616 6.0
83.6821 4.0
83.7025 16.0
83.7229 11.0
83.7434 3.0
83.7638 6.0
83.7842 9.0
83.8047 3.0
83.8251 4.0
83.8455 6.0
83.866 6.0
83.8864 2.0
83.9068 6.0
83.9273 5.0
83.9477 1.0
83.9681 4.0
83.9886 6.0
84.009 4.0
84.0294 6.0
84.0499 6.0
84.0703 6.0
84.0907 1.0
84.1112 3.0
84.1316 4.0
84.152 2.0
84.1725 7.0
84.1929 4.0
84.2133 4.0
84.2338 3.0
84.2542 3.0
84.2746 3.0
84.2951 0.0
84.3155 4.0
84.3359 4.0
84.3564 3.0
84.3768 6.0
84.3972 2.0
84.4177 3.0
84.4381 3.0
84.4585 5.0
84.4789 4.0
84.4994 1.0
84.5198 2.0
84.5402 3.0
84.5607 4.0
84.5811 5.0
84.6015 1.0
84.622 2.0
84.6424 7.0
84.6628 4.0
84.6833 1.0
84.7037 5.0
84.7241 4.0
84.7446 4.0
84.765 4.0
84.7854 0.0
84.8059 2.0
84.8263 1.0
84.8467 1.0
84.8672 3.0
84.8876 1.0
84.908 1.0
84.9285 5.0
84.9489 6.0
84.9693 5.0
84.9898 2.0
85.0102 1.0
85.0306 4.0
85.0511 5.0
85.0715 4.0
85.0919 5.0
85.1124 4.0
85.1328 0.0
85.1532 6.0
85.1737 4.0
85.1941 2.0
85.2145 2.0
85.235 3.0
85.2554 7.0
85.2758 6.0
85.2963 3.0
85.3167 4.0
85.3371 0.0
85.3576 3.0
85.378 3.0
85.3984 1.0
85.4188 3.0
85.4393 2.0
85.4597 1.0
85.4801 1.0
85.5006 2.0
85.521 5.0
85.5414 2.0
85.5619 0.0
85.5823 6.0
85.6027 2.0
85.6232 4.0
85.6436 4.0
85.664 4.0
85.6845 4.0
85.7049 1.0
85.7253 2.0
85.7458 4.0
85.7662 4.0
85.7866 4.0
85.8071 4.0
85.8275 3.0
85.8479 10.0
85.8684 2.0
85.8888 2.0
85.9092 3.0
85.9297 4.0
85.9501 1.0
85.9705 3.0
85.991 2.0
86.0114 9.0
86.0318 7.0
86.0523 3.0
86.0727 4.0
86.0931 4.0
86.1136 2.0
86.134 8.0
86.1544 5.0
86.1749 6.0
86.1953 5.0
86.2157 5.0
86.2362 5.0
86.2566 6.0
86.277 5.0
86.2975 13.0
86.3179 7.0
86.3383 8.0
86.3587 5.0
86.3792 7.0
86.3996 4.0
86.42 8.0
86.4405 3.0
86.4609 3.0
86.4813 4.0
86.5018 6.0
86.5222 5.0
86.5426 1.0
86.5631 3.0
86.5835 7.0
86.6039 5.0
86.6244 7.0
86.6448 5.0
86.6652 5.0
86.6857 4.0
86.7061 5.0
86.7265 5.0
86.747 2.0
86.7674 4.0
86.7878 5.0
86.8083 1.0
86.8287 0.0
86.8491 5.0
86.8696 3.0
86.89 8.0
86.9104 1.0
86.9309 4.0
86.9513 5.0
86.9717 4.0
86.9922 4.0
87.0126 2.0
87.033 5.0
87.0535 2.0
87.0739 2.0
87.0943 3.0
87.1148 4.0
87.1352 4.0
87.1556 4.0
87.1761 3.0
87.1965 1.0
87.2169 4.0
87.2373 3.0
87.2578 5.0
87.2782 4.0
87.2986 1.0
87.3191 3.0
87.3395 6.0
87.3599 5.0
87.3804 1.0
87.4008 3.0
87.4212 2.0
87.4417 3.0
87.4621 3.0
87.4825 3.0
87.503 3.0
87.5234 2.0
87.5438 8.0
87.5643 5.0
87.5847 3.0
87.6051 4.0
87.6256 7.0
87.646 3.0
87.6664 3.0
87.6869 6.0
87.7073 3.0
87.7277 3.0
87.7482 1.0
87.7686 2.0
87.789 5.0
87.8095 3.0
87.8299 5.0
87.8503 3.0
87.8708 3.0
87.8912 3.0
87.9116 4.0
87.9321 1.0
87.9525 3.0
87.9729 1.0
87.9934 5.0
88.0138 3.0
88.0342 1.0
88.0547 3.0
88.0751 2.0
88.0955 4.0
88.116 7.0
88.1364 9.0
88.1568 2.0
88.1772 8.0
88.1977 3.0
88.2181 3.0
88.2385 7.0
88.259 3.0
88.2794 2.0
88.2998 2.0
88.3203 1.0
88.3407 1.0
88.3611 4.0
88.3816 4.0
88.402 2.0
88.4224 7.0
88.4429 5.0
88.4633 3.0
88.4837 6.0
88.5042 4.0
88.5246 1.0
88.545 1.0
88.5655 4.0
88.5859 6.0
88.6063 4.0
88.6268 5.0
88.6472 2.0
88.6676 4.0
88.6881 4.0
88.7085 4.0
88.7289 8.0
88.7494 4.0
88.7698 11.0
88.7902 4.0
88.8107 4.0
88.8311 3.0
88.8515 7.0
88.872 2.0
88.8924 7.0
88.9128 5.0
88.9333 4.0
88.9537 4.0
88.9741 7.0
88.9946 3.0
89.015 4.0
89.0354 3.0
89.0558 2.0
89.0763 6.0
89.0967 3.0
89.1171 7.0
89.1376 3.0
89.158 4.0
89.1784 2.0
89.1989 2.0
89.2193 3.0
89.2397 4.0
89.2602 5.0
89.2806 3.0
89.301 4.0
89.3215 4.0
89.3419 7.0
89.3623 4.0
89.3828 4.0
89.4032 5.0
89.4236 4.0
89.4441 1.0
89.4645 5.0
89.4849 4.0
89.5054 3.0
89.5258 2.0
89.5462 3.0
89.5667 3.0
89.5871 1.0
89.6075 2.0
89.628 3.0
89.6484 2.0
89.6688 1.0
89.6893 5.0
89.7097 4.0
89.7301 1.0
89.7506 4.0
89.771 3.0
89.7914 0.0
89.8119 3.0
89.8323 3.0
89.8527 2.0
89.8732 5.0
89.8936 4.0
89.914 4.0
89.9345 5.0
89.9549 3.0
89.9753 4.0
89.9957 3.0
90.0162 0.0
90.0366 0.0
90.057 2.0
90.0775 5.0
90.0979 8.0
