9.9 41.0
9.9204 26.0
9.9409 32.0
9.9613 35.0
9.9817 33.0
10.0022 37.0
10.0226 34.0
10.043 35.0
10.0635 39.0
10.0839 33.0
10.1043 31.0
10.1248 32.0
10.1452 35.0
10.1656 39.0
10.1861 23.0
10.2065 31.0
10.2269 34.0
10.2474 23.0
10.2678 34.0
10.2882 31.0
10.3087 49.0
10.3291 26.0
10.3495 36.0
10.3699 32.0
10.3904 27.0
10.4108 41.0
10.4312 28.0
10.4517 38.0
10.4721 30.0
10.4925 25.0
10.513 23.0
10.5334 40.0
10.5538 31.0
10.5743 33.0
10.5947 35.0
10.6151 38.0
10.6356 32.0
10.656 32.0
10.6764 36.0
10.6969 32.0
10.7173 34.0
10.7377 35.0
10.7582 30.0
10.7786 32.0
10.799 30.0
10.8195 21.0
10.8399 34.0
10.8603 43.0
10.8808 35.0
10.9012 24.0
10.9216 42.0
10.9421 27.0
10.9625 40.0
10.9829 34.0
11.0034 35.0
11.0238 31.0
11.0442 25.0
11.0647 40.0
11.0851 21.0
11.1055 33.0
11.126 38.0
11.1464 28.0
11.1668 32.0
11.1873 39.0
11.2077 21.0
11.2281 29.0
11.2486 46.0
11.269 31.0
11.2894 25.0
11.3098 22.0
11.3303 35.0
11.3507 30.0
11.3711 27.0
11.3916 23.0
11.412 27.0
11.4324 23.0
11.4529 34.0
11.4733 24.0
11.4937 25.0
11.5142 24.0
11.5346 18.0
11.555 33.0
11.5755 28.0
11.5959 23.0
11.6163 21.0
11.6368 30.0
11.6572 30.0
11.6776 28.0
11.6981 21.0
11.7185 33.0
11.7389 34.0
11.7594 32.0
11.7798 27.0
11.8002 24.0
11.8207 31.0
11.8411 24.0
11.8615 35.0
11.882 17.0
11.9024 24.0
11.9228 37.0
11.9433 17.0
11.9637 21.0
11.9841 36.0
12.0046 28.0
12.025 24.0
12.0454 25.0
12.0659 27.0
12.0863 27.0
12.1067 31.0
12.1272 30.0
12.1476 25.0
12.168 25.0
12.1884 34.0
12.2089 23.0
12.2293 26.0
12.2497 24.0
12.2702 31.0
12.2906 20.0
12.311 23.0
12.3315 27.0
12.3519 30.0
12.3723 21.0
12.3928 29.0
12.4132 17.0
12.4336 31.0
12.4541 31.0
12.4745 27.0
12.4949 20.0
12.5154 25.0
12.5358 27.0
12.5562 21.0
12.5767 27.0
12.5971 27.0
12.6175 23.0
12.638 33.0
12.6584 24.0
12.6788 30.0
12.6993 19.0
12.7197 29.0
12.7401 16.0
12.7606 21.0
12.781 14.0
12.8014 24.0
12.8219 28.0
12.8423 24.0
12.8627 30.0
12.8832 27.0
12.9036 25.0
12.924 15.0
12.9445 27.0
12.9649 23.0
12.9853 22.0
13.0058 20.0
13.0262 23.0
13.0466 35.0
13.0671 19.0
13.0875 23.0
13.1079 22.0
13.1283 25.0
13.1488 22.0
13.1692 32.0
13.1896 22.0
13.2101 25.0
13.2305 28.0
13.2509 30.0
13.2714 12.0
13.2918 37.0
13.3122 28.0
13.3327 18.0
13.3531 26.0
13.3735 27.0
13.394 21.0
13.4144 19.0
13.4348 25.0
13.4553 20.0
13.4757 31.0
13.4961 24.0
13.5166 15.0
13.537 17.0
13.5574 30.0
13.5779 29.0
13.5983 17.0
13.6187 20.0
13.6392 25.0
13.6596 17.0
13.68 13.0
13.7005 27.0
13.7209 15.0
13.7413 31.0
13.7618 21.0
13.7822 20.0
13.8026 21.0
13.8231 23.0
13.8435 20.0
13.8639 15.0
13.8844 21.0
13.9048 27.0
13.9252 24.0
13.9457 26.0
13.9661 20.0
13.9865 28.0
14.007 19.0
14.0274 19.0
14.0478 21.0
14.0682 20.0
14.0887 24.0
14.1091 19.0
14.1295 25.0
14.15 19.0
14.1704 13.0
14.1908 17.0
14.2113 16.0
14.2317 22.0
14.2521 22.0
14.2726 19.0
14.293 14.0
14.3134 21.0
14.3339 15.0
14.3543 8.0
14.3747 23.0
14.3952 15.0
14.4156 12.0
14.436 19.0
14.4565 29.0
14.4769 24.0
14.4973 16.0
14.5178 31.0
14.5382 20.0
14.5586 19.0
14.5791 24.0
14.5995 17.0
14.6199 22.0
14.6404 12.0
14.6608 16.0
14.6812 17.0
14.7017 23.0
14.7221 15.0
14.7425 19.0
14.763 17.0
14.7834 19.0
14.8038 19.0
14.8243 19.0
14.8447 16.0
14.8651 17.0
14.8856 30.0
14.906 16.0
14.9264 27.0
14.9468 20.0
14.9673 20.0
14.9877 17.0
15.0081 28.0
15.0286 25.0
15.049 25.0
15.0694 26.0
15.0899 22.0
15.1103 12.0
15.1307 29.0
15.1512 14.0
15.1716 18.0
15.192 12.0
15.2125 14.0
15.2329 18.0
15.2533 19.0
15.2738 13.0
15.2942 15.0
15.3146 17.0
15.3351 23.0
15.3555 30.0
15.3759 18.0
15.3964 18.0
15.4168 22.0
15.4372 20.0
15.4577 19.0
15.4781 20.0
15.4985 18.0
15.519 25.0
15.5394 23.0
15.5598 16.0
15.5803 19.0
15.6007 18.0
15.6211 24.0
15.6416 10.0
15.662 17.0
15.6824 20.0
15.7029 23.0
15.7233 26.0
15.7437 11.0
15.7642 15.0
15.7846 25.0
15.805 15.0
15.8255 12.0
15.8459 19.0
15.8663 14.0
15.8867 29.0
15.9072 14.0
15.9276 19.0
15.948 27.0
15.9685 17.0
15.9889 19.0
16.0093 18.0
16.0298 27.0
16.0502 28.0
16.0706 14.0
16.0911 23.0
16.1115 19.0
16.1319 16.0
16.1524 18.0
16.1728 24.0
16.1932 17.0
16.2137 11.0
16.2341 23.0
16.2545 17.0
16.275 20.0
16.2954 20.0
16.3158 23.0
16.3363 15.0
16.3567 15.0
16.3771 35.0
16.3976 22.0
16.418 22.0
16.4384 19.0
16.4589 16.0
16.4793 18.0
16.4997 20.0
16.5202 24.0
16.5406 15.0
16.561 17.0
16.5815 17.0
16.6019 23.0
16.6223 19.0
16.6428 16.0
16.6632 17.0
16.6836 26.0
16.7041 23.0
16.7245 16.0
16.7449 10.0
16.7653 25.0
16.7858 20.0
16.8062 26.0
16.8266 16.0
16.8471 14.0
16.8675 17.0
16.8879 16.0
16.9084 24.0
16.9288 12.0
16.9492 26.0
16.9697 13.0
16.9901 22.0
17.0105 23.0
17.031 15.0
17.0514 21.0
17.0718 15.0
17.0923 20.0
17.1127 17.0
17.1331 10.0
17.1536 11.0
17.174 15.0
17.1944 16.0
17.2149 20.0
17.2353 27.0
17.2557 17.0
17.2762 23.0
17.2966 13.0
17.317 14.0
17.3375 25.0
17.3579 17.0
17.3783 26.0
17.3988 13.0
17.4192 18.0
17.4396 15.0
17.4601 20.0
17.4805 12.0
17.5009 16.0
17.5214 19.0
17.5418 18.0
17.5622 12.0
17.5827 17.0
17.6031 21.0
17.6235 11.0
17.644 24.0
17.6644 18.0
17.6848 23.0
17.7052 13.0
17.7257 13.0
17.7461 24.0
17.7665 14.0
17.787 17.0
17.8074 24.0
17.8278 17.0
17.8483 16.0
17.8687 15.0
17.8891 20.0
17.9096 29.0
17.93 24.0
17.9504 19.0
17.9709 17.0
17.9913 21.0
18.0117 18.0
18.0322 26.0
18.0526 22.0
18.073 17.0
18.0935 17.0
18.1139 26.0
18.1343 21.0
18.1548 21.0
18.1752 12.0
18.1956 24.0
18.2161 16.0
18.2365 16.0
18.2569 25.0
18.2774 25.0
18.2978 25.0
18.3182 20.0
18.3387 25.0
18.3591 19.0
18.3795 16.0
18.4 24.0
18.4204 17.0
18.4408 18.0
18.4613 25.0
18.4817 19.0
18.5021 26.0
18.5226 14.0
18.543 23.0
18.5634 21.0
18.5839 21.0
18.6043 17.0
18.6247 21.0
18.6451 18.0
18.6656 26.0
18.686 23.0
18.7064 35.0
18.7269 21.0
18.7473 21.0
18.7677 22.0
18.7882 22.0
18.8086 19.0
18.829 23.0
18.8495 25.0
18.8699 20.0
18.8903 23.0
18.9108 19.0
18.9312 17.0
18.9516 14.0
18.9721 22.0
18.9925 24.0
19.0129 24.0
19.0334 22.0
19.0538 30.0
19.0742 23.0
19.0947 22.0
19.1151 20.0
19.1355 20.0
19.156 18.0
19.1764 20.0
19.1968 17.0
19.2173 20.0
19.2377 32.0
19.2581 16.0
19.2786 19.0
19.299 18.0
19.3194 24.0
19.3399 20.0
19.3603 23.0
19.3807 21.0
19.4012 17.0
19.4216 23.0
19.442 17.0
19.4625 21.0
19.4829 12.0
19.5033 24.0
19.5237 26.0
19.5442 20.0
19.5646 34.0
19.585 21.0
19.6055 25.0
19.6259 24.0
19.6463 16.0
19.6668 16.0
19.6872 18.0
19.7076 21.0
19.7281 17.0
19.7485 15.0
19.7689 18.0
19.7894 16.0
19.8098 16.0
19.8302 20.0
19.8507 18.0
19.8711 19.0
19.8915 22.0
19.912 19.0
19.9324 26.0
19.9528 17.0
19.9733 19.0
19.9937 18.0
20.0141 17.0
20.0346 23.0
20.055 16.0
20.0754 15.0
20.0959 23.0
20.1163 25.0
20.1367 22.0
20.1572 21.0
20.1776 24.0
20.198 20.0
20.2185 21.0
20.2389 11.0
20.2593 20.0
20.2798 17.0
20.3002 28.0
20.3206 21.0
20.3411 23.0
20.3615 20.0
20.3819 19.0
20.4024 21.0
20.4228 29.0
20.4432 21.0
20.4636 21.0
20.4841 20.0
20.5045 22.0
20.5249 23.0
20.5454 23.0
20.5658 29.0
20.5862 21.0
20.6067 19.0
20.6271 23.0
20.6475 23.0
20.668 21.0
20.6884 24.0
20.7088 24.0
20.7293 23.0
20.7497 20.0
20.7701 18.0
20.7906 17.0
20.811 16.0
20.8314 22.0
20.8519 18.0
20.8723 16.0
20.8927 24.0
20.9132 13.0
20.9336 19.0
20.954 27.0
20.9745 20.0
20.9949 12.0
21.0153 19.0
21.0358 23.0
21.0562 19.0
21.0766 19.0
21.0971 16.0
21.1175 19.0
21.1379 27.0
21.1584 16.0
21.1788 27.0
21.1992 18.0
21.2197 21.0
21.2401 18.0
21.2605 11.0
21.281 22.0
21.3014 20.0
21.3218 17.0
21.3422 25.0
21.3627 20.0
21.3831 20.0
21.4035 20.0
21.424 15.0
21.4444 24.0
21.4648 28.0
21.4853 24.0
21.5057 24.0
21.5261 27.0
21.5466 14.0
21.567 22.0
21.5874 21.0
21.6079 19.0
21.6283 25.0
21.6487 25.0
21.6692 19.0
21.6896 30.0
21.71 30.0
21.7305 22.0
21.7509 29.0
21.7713 27.0
21.7918 16.0
21.8122 20.0
21.8326 28.0
21.8531 13.0
21.8735 22.0
21.8939 23.0
21.9144 21.0
21.9348 21.0
21.9552 14.0
21.9757 20.0
21.9961 17.0
22.0165 22.0
22.037 16.0
22.0574 23.0
22.0778 22.0
22.0983 22.0
22.1187 23.0
22.1391 22.0
22.1596 28.0
22.18 12.0
22.2004 21.0
22.2209 13.0
22.2413 23.0
22.2617 22.0
22.2821 24.0
22.3026 18.0
22.323 25.0
22.3434 23.0
22.3639 20.0
22.3843 24.0
22.4047 25.0
22.4252 23.0
22.4456 23.0
22.466 15.0
22.4865 25.0
22.5069 24.0
22.5273 28.0
22.5478 30.0
22.5682 18.0
22.5886 24.0
22.6091 22.0
22.6295 34.0
22.6499 24.0
22.6704 31.0
22.6908 19.0
22.7112 20.0
22.7317 28.0
22.7521 28.0
22.7725 25.0
22.793 22.0
22.8134 17.0
22.8338 16.0
22.8543 22.0
22.8747 29.0
22.8951 16.0
22.9156 21.0
22.936 19.0
22.9564 28.0
22.9769 25.0
22.9973 24.0
23.0177 24.0
23.0382 16.0
23.0586 13.0
23.079 26.0
23.0995 23.0
23.1199 21.0
23.1403 27.0
23.1608 30.0
23.1812 24.0
23.2016 22.0
23.222 22.0
23.2425 32.0
23.2629 29.0
23.2833 30.0
23.3038 32.0
23.3242 35.0
23.3446 27.0
23.3651 30.0
23.3855 27.0
23.4059 31.0
23.4264 23.0
23.4468 22.0
23.4672 25.0
23.4877 19.0
23.5081 26.0
23.5285 20.0
23.549 23.0
23.5694 24.0
23.5898 20.0
23.6103 24.0
23.6307 31.0
23.6511 22.0
23.6716 26.0
23.692 34.0
23.7124 26.0
23.7329 32.0
23.7533 25.0
23.7737 27.0
23.7942 22.0
23.8146 21.0
23.835 18.0
23.8555 24.0
23.8759 27.0
23.8963 20.0
23.9168 25.0
23.9372 27.0
23.9576 23.0
23.9781 29.0
23.9985 19.0
24.0189 23.0
24.0394 12.0
24.0598 27.0
24.0802 19.0
24.1006 26.0
24.1211 19.0
24.1415 20.0
24.1619 27.0
24.1824 23.0
24.2028 20.0
24.2232 22.0
24.2437 15.0
24.2641 27.0
24.2845 30.0
24.305 25.0
24.3254 25.0
24.3458 29.0
24.3663 19.0
24.3867 24.0
24.4071 20.0
24.4276 23.0
24.448 25.0
24.4684 26.0
24.4889 20.0
24.5093 29.0
24.5297 20.0
24.5502 22.0
24.5706 21.0
24.591 22.0
24.6115 34.0
24.6319 20.0
24.6523 24.0
24.6728 23.0
24.6932 35.0
24.7136 30.0
24.7341 23.0
24.7545 31.0
24.7749 31.0
24.7954 28.0
24.8158 33.0
24.8362 24.0
24.8567 30.0
24.8771 34.0
24.8975 31.0
24.918 27.0
24.9384 22.0
24.9588 33.0
24.9793 29.0
24.9997 28.0
25.0201 33.0
25.0405 29.0
25.061 33.0
25.0814 36.0
25.1018 30.0
25.1223 33.0
25.1427 35.0
25.1631 45.0
25.1836 41.0
25.204 39.0
25.2244 27.0
25.2449 40.0
25.2653 35.0
25.2857 30.0
25.3062 40.0
25.3266 35.0
25.347 32.0
25.3675 40.0
25.3879 40.0
25.4083 37.0
25.4288 42.0
25.4492 42.0
25.4696 54.0
25.4901 46.0
25.5105 38.0
25.5309 44.0
25.5514 39.0
25.5718 34.0
25.5922 49.0
25.6127 42.0
25.6331 54.0
25.6535 32.0
25.674 54.0
25.6944 39.0
25.7148 41.0
25.7353 35.0
25.7557 38.0
25.7761 39.0
25.7966 31.0
25.817 34.0
25.8374 30.0
25.8579 36.0
25.8783 30.0
25.8987 27.0
25.9191 28.0
25.9396 21.0
25.96 29.0
25.9804 34.0
26.0009 28.0
26.0213 37.0
26.0417 35.0
26.0622 27.0
26.0826 27.0
26.103 41.0
26.1235 28.0
26.1439 21.0
26.1643 36.0
26.1848 29.0
26.2052 31.0
26.2256 23.0
26.2461 27.0
26.2665 30.0
26.2869 21.0
26.3074 22.0
26.3278 23.0
26.3482 20.0
26.3687 28.0
26.3891 37.0
26.4095 26.0
26.43 24.0
26.4504 30.0
26.4708 32.0
26.4913 27.0
26.5117 28.0
26.5321 32.0
26.5526 37.0
26.573 32.0
26.5934 29.0
26.6139 29.0
26.6343 33.0
26.6547 27.0
26.6752 27.0
26.6956 28.0
26.716 27.0
26.7365 28.0
26.7569 27.0
26.7773 26.0
26.7978 25.0
26.8182 23.0
26.8386 28.0
26.859 20.0
26.8795 26.0
26.8999 33.0
26.9203 25.0
26.9408 26.0
26.9612 26.0
26.9816 30.0
27.0021 24.0
27.0225 31.0
27.0429 29.0
27.0634 34.0
27.0838 26.0
27.1042 35.0
27.1247 19.0
27.1451 20.0
27.1655 29.0
27.186 25.0
27.2064 25.0
27.2268 28.0
27.2473 28.0
27.2677 20.0
27.2881 21.0
27.3086 30.0
27.329 25.0
27.3494 23.0
27.3699 20.0
27.3903 28.0
27.4107 27.0
27.4312 39.0
27.4516 36.0
27.472 37.0
27.4925 34.0
27.5129 39.0
27.5333 28.0
27.5538 38.0
27.5742 30.0
27.5946 23.0
27.6151 30.0
27.6355 38.0
27.6559 31.0
27.6764 23.0
27.6968 42.0
27.7172 43.0
27.7377 24.0
27.7581 23.0
27.7785 19.0
27.7989 28.0
27.8194 20.0
27.8398 32.0
27.8602 28.0
27.8807 32.0
27.9011 36.0
27.9215 43.0
27.942 33.0
27.9624 24.0
27.9828 31.0
28.0033 31.0
28.0237 36.0
28.0441 38.0
28.0646 32.0
28.085 30.0
28.1054 35.0
28.1259 21.0
28.1463 30.0
28.1667 25.0
28.1872 30.0
28.2076 22.0
28.228 30.0
28.2485 26.0
28.2689 21.0
28.2893 35.0
28.3098 28.0
28.3302 26.0
28.3506 37.0
28.3711 29.0
28.3915 34.0
28.4119 27.0
28.4324 29.0
28.4528 41.0
28.4732 35.0
28.4937 41.0
28.5141 39.0
28.5345 41.0
28.555 38.0
28.5754 21.0
28.5958 41.0
28.6163 41.0
28.6367 34.0
28.6571 38.0
28.6775 23.0
28.698 24.0
28.7184 29.0
28.7388 41.0
28.7593 25.0
28.7797 25.0
28.8001 35.0
28.8206 31.0
28.841 33.0
28.8614 38.0
28.8819 29.0
28.9023 39.0
28.9227 29.0
28.9432 32.0
28.9636 31.0
28.984 33.0
29.0045 30.0
29.0249 20.0
29.0453 24.0
29.0658 29.0
29.0862 32.0
29.1066 30.0
29.1271 28.0
29.1475 29.0
29.1679 27.0
29.1884 32.0
29.2088 45.0
29.2292 30.0
29.2497 28.0
29.2701 41.0
29.2905 26.0
29.311 31.0
29.3314 25.0
29.3518 45.0
29.3723 27.0
29.3927 39.0
29.4131 29.0
29.4336 30.0
29.454 26.0
29.4744 24.0
29.4949 37.0
29.5153 39.0
29.5357 33.0
29.5562 32.0
29.5766 44.0
29.597 53.0
29.6174 57.0
29.6379 59.0
29.6583 71.0
29.6787 104.0
29.6992 163.0
29.7196 259.0
29.74 382.0
29.7605 436.0
29.7809 463.0
29.8013 487.0
29.8218 440.0
29.8422 354.0
29.8626 328.0
29.8831 255.0
29.9035 165.0
29.9239 108.0
29.9444 114.0
29.9648 60.0
29.9852 66.0
30.0057 54.0
30.0261 65.0
30.0465 55.0
30.067 53.0
30.0874 42.0
30.1078 45.0
30.1283 39.0
30.1487 32.0
30.1691 37.0
30.1896 48.0
30.21 33.0
30.2304 49.0
30.2509 30.0
30.2713 43.0
30.2917 32.0
30.3122 36.0
30.3326 29.0
30.353 35.0
30.3735 39.0
30.3939 29.0
30.4143 26.0
30.4348 31.0
30.4552 44.0
30.4756 34.0
30.496 31.0
30.5165 35.0
30.5369 36.0
30.5573 23.0
30.5778 39.0
30.5982 31.0
30.6186 38.0
30.6391 25.0
30.6595 27.0
30.6799 35.0
30.7004 31.0
30.7208 34.0
30.7412 34.0
30.7617 37.0
30.7821 35.0
30.8025 45.0
30.823 27.0
30.8434 31.0
30.8638 32.0
30.8843 34.0
30.9047 36.0
30.9251 32.0
30.9456 40.0
30.966 39.0
30.9864 31.0
31.0069 25.0
31.0273 41.0
31.0477 30.0
31.0682 35.0
31.0886 33.0
31.109 25.0
31.1295 32.0
31.1499 37.0
31.1703 29.0
31.1908 40.0
31.2112 37.0
31.2316 37.0
31.2521 32.0
31.2725 38.0
31.2929 42.0
31.3134 27.0
31.3338 49.0
31.3542 23.0
31.3747 34.0
31.3951 23.0
31.4155 24.0
31.4359 29.0
31.4564 38.0
31.4768 31.0
31.4972 26.0
31.5177 33.0
31.5381 34.0
31.5585 22.0
31.579 35.0
31.5994 42.0
31.6198 42.0
31.6403 32.0
31.6607 30.0
31.6811 29.0
31.7016 32.0
31.722 31.0
31.7424 40.0
31.7629 35.0
31.7833 29.0
31.8037 34.0
31.8242 39.0
31.8446 33.0
31.865 22.0
31.8855 36.0
31.9059 26.0
31.9263 44.0
31.9468 41.0
31.9672 46.0
31.9876 43.0
32.0081 40.0
32.0285 37.0
32.0489 40.0
32.0694 51.0
32.0898 65.0
32.1102 65.0
32.1307 84.0
32.1511 97.0
32.1715 121.0
32.192 111.0
32.2124 117.0
32.2328 86.0
32.2533 106.0
32.2737 92.0
32.2941 66.0
32.3146 62.0
32.335 68.0
32.3554 52.0
32.3758 51.0
32.3963 46.0
32.4167 53.0
32.4371 49.0
32.4576 50.0
32.478 67.0
32.4984 38.0
32.5189 48.0
32.5393 55.0
32.5597 52.0
32.5802 54.0
32.6006 59.0
32.621 56.0
32.6415 58.0
32.6619 69.0
32.6823 78.0
32.7028 67.0
32.7232 83.0
32.7436 78.0
32.7641 72.0
32.7845 91.0
32.8049 94.0
32.8254 85.0
32.8458 72.0
32.8662 80.0
32.8867 89.0
32.9071 90.0
32.9275 87.0
32.948 98.0
32.9684 96.0
32.9888 103.0
33.0093 112.0
33.0297 104.0
33.0501 99.0
33.0706 91.0
33.091 92.0
33.1114 112.0
33.1319 106.0
33.1523 83.0
33.1727 76.0
33.1932 87.0
33.2136 61.0
33.234 66.0
33.2544 80.0
33.2749 75.0
33.2953 63.0
33.3157 64.0
33.3362 70.0
33.3566 63.0
33.377 54.0
33.3975 59.0
33.4179 43.0
33.4383 63.0
33.4588 37.0
33.4792 57.0
33.4996 42.0
33.5201 42.0
33.5405 47.0
33.5609 43.0
33.5814 40.0
33.6018 32.0
33.6222 38.0
33.6427 48.0
33.6631 44.0
33.6835 46.0
33.704 42.0
33.7244 53.0
33.7448 36.0
33.7653 40.0
33.7857 41.0
33.8061 42.0
33.8266 46.0
33.847 34.0
33.8674 52.0
33.8879 33.0
33.9083 46.0
33.9287 44.0
33.9492 33.0
33.9696 34.0
33.99 30.0
34.0105 37.0
34.0309 40.0
34.0513 28.0
34.0718 34.0
34.0922 27.0
34.1126 28.0
34.1331 31.0
34.1535 38.0
34.1739 26.0
34.1943 33.0
34.2148 30.0
34.2352 35.0
34.2556 25.0
34.2761 31.0
34.2965 31.0
34.3169 28.0
34.3374 27.0
34.3578 39.0
34.3782 36.0
34.3987 37.0
34.4191 38.0
34.4395 36.0
34.46 44.0
34.4804 21.0
34.5008 29.0
34.5213 32.0
34.5417 30.0
34.5621 36.0
34.5826 33.0
34.603 44.0
34.6234 36.0
34.6439 26.0
34.6643 33.0
34.6847 33.0
34.7052 20.0
34.7256 23.0
34.746 32.0
34.7665 29.0
34.7869 30.0
34.8073 28.0
34.8278 35.0
34.8482 34.0
34.8686 27.0
34.8891 33.0
34.9095 30.0
34.9299 41.0
34.9504 28.0
34.9708 33.0
34.9912 36.0
35.0117 33.0
35.0321 39.0
35.0525 25.0
35.0729 25.0
35.0934 29.0
35.1138 27.0
35.1342 44.0
35.1547 31.0
35.1751 43.0
35.1955 30.0
35.216 30.0
35.2364 35.0
35.2568 34.0
35.2773 33.0
35.2977 31.0
35.3181 32.0
35.3386 27.0
35.359 28.0
35.3794 33.0
35.3999 28.0
35.4203 27.0
35.4407 29.0
35.4612 33.0
35.4816 34.0
35.502 32.0
35.5225 31.0
35.5429 30.0
35.5633 28.0
35.5838 38.0
35.6042 29.0
35.6246 36.0
35.6451 32.0
35.6655 27.0
35.6859 34.0
35.7064 27.0
35.7268 26.0
35.7472 27.0
35.7677 32.0
35.7881 30.0
35.8085 36.0
35.829 56.0
35.8494 41.0
35.8698 51.0
35.8903 52.0
35.9107 28.0
35.9311 49.0
35.9516 50.0
35.972 46.0
35.9924 33.0
36.0128 33.0
36.0333 34.0
36.0537 33.0
36.0741 31.0
36.0946 30.0
36.115 33.0
36.1354 45.0
36.1559 28.0
36.1763 40.0
36.1967 29.0
36.2172 25.0
36.2376 32.0
36.258 34.0
36.2785 29.0
36.2989 32.0
36.3193 37.0
36.3398 24.0
36.3602 28.0
36.3806 26.0
36.4011 37.0
36.4215 28.0
36.4419 23.0
36.4624 33.0
36.4828 30.0
36.5032 33.0
36.5237 22.0
36.5441 33.0
36.5645 30.0
36.585 37.0
36.6054 34.0
36.6258 34.0
36.6463 33.0
36.6667 33.0
36.6871 38.0
36.7076 25.0
36.728 23.0
36.7484 37.0
36.7689 38.0
36.7893 33.0
36.8097 26.0
36.8302 22.0
36.8506 33.0
36.871 22.0
36.8915 24.0
36.9119 26.0
36.9323 21.0
36.9527 26.0
36.9732 24.0
36.9936 23.0
37.014 34.0
37.0345 37.0
37.0549 34.0
37.0753 33.0
37.0958 25.0
37.1162 26.0
37.1366 28.0
37.1571 26.0
37.1775 39.0
37.1979 32.0
37.2184 26.0
37.2388 33.0
37.2592 32.0
37.2797 30.0
37.3001 32.0
37.3205 33.0
37.341 33.0
37.3614 34.0
37.3818 29.0
37.4023 28.0
37.4227 33.0
37.4431 36.0
37.4636 38.0
37.484 40.0
37.5044 32.0
37.5249 33.0
37.5453 38.0
37.5657 28.0
37.5862 31.0
37.6066 30.0
37.627 18.0
37.6475 41.0
37.6679 39.0
37.6883 38.0
37.7088 31.0
37.7292 36.0
37.7496 37.0
37.7701 34.0
37.7905 34.0
37.8109 29.0
37.8313 30.0
37.8518 38.0
37.8722 35.0
37.8926 38.0
37.9131 29.0
37.9335 36.0
37.9539 23.0
37.9744 36.0
37.9948 35.0
38.0152 35.0
38.0357 30.0
38.0561 28.0
38.0765 25.0
38.097 32.0
38.1174 33.0
38.1378 38.0
38.1583 32.0
38.1787 32.0
38.1991 36.0
38.2196 32.0
38.24 30.0
38.2604 40.0
38.2809 34.0
38.3013 30.0
38.3217 32.0
38.3422 44.0
38.3626 45.0
38.383 37.0
38.4035 43.0
38.4239 36.0
38.4443 47.0
38.4648 40.0
38.4852 26.0
38.5056 32.0
38.5261 37.0
38.5465 44.0
38.5669 37.0
38.5874 31.0
38.6078 50.0
38.6282 38.0
38.6487 41.0
38.6691 28.0
38.6895 31.0
38.71 37.0
38.7304 38.0
38.7508 41.0
38.7712 44.0
38.7917 39.0
38.8121 41.0
38.8325 38.0
38.853 45.0
38.8734 41.0
38.8938 41.0
38.9143 31.0
38.9347 53.0
38.9551 51.0
38.9756 49.0
38.996 51.0
39.0164 57.0
39.0369 37.0
39.0573 50.0
39.0777 42.0
39.0982 36.0
39.1186 37.0
39.139 31.0
39.1595 31.0
39.1799 34.0
39.2003 45.0
39.2208 42.0
39.2412 44.0
39.2616 44.0
39.2821 48.0
39.3025 59.0
39.3229 60.0
39.3434 72.0
39.3638 81.0
39.3842 113.0
39.4047 103.0
39.4251 70.0
39.4455 74.0
39.466 67.0
39.4864 69.0
39.5068 62.0
39.5273 57.0
39.5477 40.0
39.5681 45.0
39.5886 36.0
39.609 36.0
39.6294 34.0
39.6498 40.0
39.6703 33.0
39.6907 34.0
39.7111 42.0
39.7316 34.0
39.752 37.0
39.7724 24.0
39.7929 30.0
39.8133 32.0
39.8337 33.0
39.8542 34.0
39.8746 38.0
39.895 30.0
39.9155 35.0
39.9359 20.0
39.9563 36.0
39.9768 30.0
39.9972 31.0
40.0176 20.0
40.0381 26.0
40.0585 20.0
40.0789 32.0
40.0994 28.0
40.1198 25.0
40.1402 26.0
40.1607 36.0
40.1811 29.0
40.2015 31.0
40.222 21.0
40.2424 26.0
40.2628 24.0
40.2833 31.0
40.3037 30.0
40.3241 28.0
40.3446 33.0
40.365 24.0
40.3854 29.0
40.4059 38.0
40.4263 28.0
40.4467 34.0
40.4672 32.0
40.4876 25.0
40.508 26.0
40.5285 22.0
40.5489 25.0
40.5693 29.0
40.5897 28.0
40.6102 29.0
40.6306 26.0
40.651 34.0
40.6715 27.0
40.6919 27.0
40.7123 31.0
40.7328 37.0
40.7532 33.0
40.7736 27.0
40.7941 24.0
40.8145 21.0
40.8349 20.0
40.8554 18.0
40.8758 28.0
40.8962 27.0
40.9167 28.0
40.9371 40.0
40.9575 25.0
40.978 19.0
40.9984 27.0
41.0188 37.0
41.0393 39.0
41.0597 28.0
41.0801 32.0
41.1006 32.0
41.121 27.0
41.1414 21.0
41.1619 26.0
41.1823 27.0
41.2027 27.0
41.2232 40.0
41.2436 27.0
41.264 28.0
41.2845 38.0
41.3049 33.0
41.3253 29.0
41.3458 45.0
41.3662 24.0
41.3866 29.0
41.4071 33.0
41.4275 24.0
41.4479 32.0
41.4684 33.0
41.4888 39.0
41.5092 30.0
41.5296 33.0
41.5501 38.0
41.5705 26.0
41.5909 34.0
41.6114 27.0
41.6318 35.0
41.6522 34.0
41.6727 27.0
41.6931 23.0
41.7135 34.0
41.734 20.0
41.7544 31.0
41.7748 35.0
41.7953 26.0
41.8157 22.0
41.8361 26.0
41.8566 30.0
41.877 31.0
41.8974 23.0
41.9179 30.0
41.9383 28.0
41.9587 43.0
41.9792 31.0
41.9996 28.0
42.02 28.0
42.0405 32.0
42.0609 32.0
42.0813 40.0
42.1018 42.0
42.1222 29.0
42.1426 31.0
42.1631 35.0
42.1835 41.0
42.2039 27.0
42.2244 31.0
42.2448 33.0
42.2652 41.0
42.2857 23.0
42.3061 29.0
42.3265 26.0
42.347 30.0
42.3674 35.0
42.3878 34.0
42.4082 42.0
42.4287 28.0
42.4491 29.0
42.4695 53.0
42.49 41.0
42.5104 30.0
42.5308 42.0
42.5513 25.0
42.5717 28.0
42.5921 33.0
42.6126 35.0
42.633 27.0
42.6534 33.0
42.6739 37.0
42.6943 31.0
42.7147 33.0
42.7352 40.0
42.7556 46.0
42.776 47.0
42.7965 33.0
42.8169 39.0
42.8373 33.0
42.8578 54.0
42.8782 46.0
42.8986 56.0
42.9191 43.0
42.9395 59.0
42.9599 67.0
42.9804 65.0
43.0008 73.0
43.0212 54.0
43.0417 58.0
43.0621 49.0
43.0825 44.0
43.103 61.0
43.1234 54.0
43.1438 48.0
43.1643 29.0
43.1847 47.0
43.2051 46.0
43.2256 45.0
43.246 43.0
43.2664 29.0
43.2869 39.0
43.3073 55.0
43.3277 44.0
43.3481 37.0
43.3686 31.0
43.389 40.0
43.4094 33.0
43.4299 32.0
43.4503 35.0
43.4707 34.0
43.4912 24.0
43.5116 26.0
43.532 18.0
43.5525 28.0
43.5729 51.0
43.5933 36.0
43.6138 43.0
43.6342 35.0
43.6546 36.0
43.6751 30.0
43.6955 37.0
43.7159 34.0
43.7364 39.0
43.7568 27.0
43.7772 41.0
43.7977 34.0
43.8181 29.0
43.8385 32.0
43.859 41.0
43.8794 38.0
43.8998 28.0
43.9203 38.0
43.9407 33.0
43.9611 35.0
43.9816 30.0
44.002 27.0
44.0224 34.0
44.0429 35.0
44.0633 39.0
44.0837 33.0
44.1042 24.0
44.1246 31.0
44.145 29.0
44.1655 18.0
44.1859 29.0
44.2063 34.0
44.2267 29.0
44.2472 36.0
44.2676 31.0
44.288 31.0
44.3085 35.0
44.3289 28.0
44.3493 22.0
44.3698 22.0
44.3902 29.0
44.4106 29.0
44.4311 38.0
44.4515 36.0
44.4719 26.0
44.4924 28.0
44.5128 27.0
44.5332 35.0
44.5537 27.0
44.5741 24.0
44.5945 30.0
44.615 21.0
44.6354 25.0
44.6558 29.0
44.6763 27.0
44.6967 31.0
44.7171 37.0
44.7376 34.0
44.758 40.0
44.7784 22.0
44.7989 32.0
44.8193 28.0
44.8397 26.0
44.8602 37.0
44.8806 38.0
44.901 30.0
44.9215 21.0
44.9419 36.0
44.9623 31.0
44.9828 38.0
45.0032 29.0
45.0236 34.0
45.0441 38.0
45.0645 39.0
45.0849 32.0
45.1054 31.0
45.1258 37.0
45.1462 37.0
45.1666 29.0
45.1871 30.0
45.2075 39.0
45.2279 17.0
45.2484 32.0
45.2688 34.0
45.2892 47.0
45.3097 28.0
45.3301 36.0
45.3505 30.0
45.371 27.0
45.3914 43.0
45.4118 31.0
45.4323 37.0
45.4527 29.0
45.4731 31.0
45.4936 35.0
45.514 28.0
45.5344 31.0
45.5549 32.0
45.5753 19.0
45.5957 26.0
45.6162 30.0
45.6366 40.0
45.657 42.0
45.6775 28.0
45.6979 24.0
45.7183 30.0
45.7388 25.0
45.7592 29.0
45.7796 38.0
45.8001 26.0
45.8205 25.0
45.8409 32.0
45.8614 38.0
45.8818 34.0
45.9022 33.0
45.9227 29.0
45.9431 27.0
45.9635 31.0
45.984 30.0
46.0044 40.0
46.0248 38.0
46.0453 38.0
46.0657 31.0
46.0861 31.0
46.1065 20.0
46.127 41.0
46.1474 27.0
46.1678 37.0
46.1883 34.0
46.2087 38.0
46.2291 42.0
46.2496 30.0
46.27 27.0
46.2904 36.0
46.3109 37.0
46.3313 33.0
46.3517 30.0
46.3722 37.0
46.3926 29.0
46.413 35.0
46.4335 35.0
46.4539 36.0
46.4743 36.0
46.4948 35.0
46.5152 32.0
46.5356 43.0
46.5561 32.0
46.5765 53.0
46.5969 45.0
46.6174 44.0
46.6378 33.0
46.6582 41.0
46.6787 47.0
46.6991 39.0
46.7195 44.0
46.74 42.0
46.7604 49.0
46.7808 46.0
46.8013 49.0
46.8217 45.0
46.8421 48.0
46.8626 34.0
46.883 48.0
46.9034 52.0
46.9239 37.0
46.9443 53.0
46.9647 37.0
46.9851 42.0
47.0056 32.0
47.026 38.0
47.0464 46.0
47.0669 34.0
47.0873 53.0
47.1077 44.0
47.1282 49.0
47.1486 35.0
47.169 34.0
47.1895 40.0
47.2099 37.0
47.2303 42.0
47.2508 35.0
47.2712 34.0
47.2916 37.0
47.3121 43.0
47.3325 35.0
47.3529 53.0
47.3734 29.0
47.3938 44.0
47.4142 36.0
47.4347 37.0
47.4551 32.0
47.4755 34.0
47.496 27.0
47.5164 33.0
47.5368 28.0
47.5573 41.0
47.5777 30.0
47.5981 36.0
47.6186 28.0
47.639 32.0
47.6594 40.0
47.6799 36.0
47.7003 24.0
47.7207 38.0
47.7412 32.0
47.7616 48.0
47.782 36.0
47.8025 37.0
47.8229 31.0
47.8433 30.0
47.8638 35.0
47.8842 35.0
47.9046 33.0
47.925 33.0
47.9455 42.0
47.9659 40.0
47.9863 39.0
48.0068 46.0
48.0272 43.0
48.0476 63.0
48.0681 68.0
48.0885 66.0
48.1089 80.0
48.1294 114.0
48.1498 83.0
48.1702 72.0
48.1907 63.0
48.2111 78.0
48.2315 80.0
48.252 62.0
48.2724 63.0
48.2928 56.0
48.3133 37.0
48.3337 46.0
48.3541 29.0
48.3746 40.0
48.395 33.0
48.4154 35.0
48.4359 34.0
48.4563 40.0
48.4767 33.0
48.4972 31.0
48.5176 33.0
48.538 22.0
48.5585 31.0
48.5789 43.0
48.5993 41.0
48.6198 47.0
48.6402 54.0
48.6606 50.0
48.6811 49.0
48.7015 64.0
48.7219 52.0
48.7424 49.0
48.7628 51.0
48.7832 40.0
48.8036 44.0
48.8241 53.0
48.8445 43.0
48.8649 42.0
48.8854 42.0
48.9058 32.0
48.9262 41.0
48.9467 28.0
48.9671 34.0
48.9875 33.0
49.008 28.0
49.0284 30.0
49.0488 42.0
49.0693 33.0
49.0897 30.0
49.1101 32.0
49.1306 28.0
49.151 32.0
49.1714 21.0
49.1919 21.0
49.2123 32.0
49.2327 28.0
49.2532 24.0
49.2736 28.0
49.294 29.0
49.3145 32.0
49.3349 26.0
49.3553 38.0
49.3758 29.0
49.3962 29.0
49.4166 25.0
49.4371 26.0
49.4575 28.0
49.4779 41.0
49.4984 37.0
49.5188 29.0
49.5392 27.0
49.5597 27.0
49.5801 38.0
49.6005 27.0
49.621 36.0
49.6414 26.0
49.6618 35.0
49.6823 33.0
49.7027 34.0
49.7231 29.0
49.7435 22.0
49.764 26.0
49.7844 26.0
49.8048 33.0
49.8253 33.0
49.8457 34.0
49.8661 36.0
49.8866 27.0
49.907 19.0
49.9274 25.0
49.9479 21.0
49.9683 30.0
49.9887 26.0
50.0092 27.0
50.0296 30.0
50.05 25.0
50.0705 26.0
50.0909 24.0
50.1113 22.0
50.1318 31.0
50.1522 36.0
50.1726 34.0
50.1931 32.0
50.2135 29.0
50.2339 33.0
50.2544 33.0
50.2748 39.0
50.2952 34.0
50.3157 33.0
50.3361 29.0
50.3565 33.0
50.377 24.0
50.3974 26.0
50.4178 26.0
50.4383 30.0
50.4587 28.0
50.4791 15.0
50.4996 26.0
50.52 24.0
50.5404 34.0
50.5609 30.0
50.5813 30.0
50.6017 21.0
50.6221 21.0
50.6426 25.0
50.663 33.0
50.6834 29.0
50.7039 23.0
50.7243 28.0
50.7447 35.0
50.7652 31.0
50.7856 22.0
50.806 25.0
50.8265 32.0
50.8469 33.0
50.8673 29.0
50.8878 29.0
50.9082 26.0
50.9286 37.0
50.9491 25.0
50.9695 31.0
50.9899 41.0
51.0104 27.0
51.0308 33.0
51.0512 34.0
51.0717 29.0
51.0921 28.0
51.1125 34.0
51.133 32.0
51.1534 32.0
51.1738 30.0
51.1943 34.0
51.2147 43.0
51.2351 36.0
51.2556 38.0
51.276 23.0
51.2964 31.0
51.3169 32.0
51.3373 36.0
51.3577 31.0
51.3782 25.0
51.3986 41.0
51.419 33.0
51.4395 27.0
51.4599 32.0
51.4803 34.0
51.5008 28.0
51.5212 35.0
51.5416 32.0
51.562 41.0
51.5825 42.0
51.6029 31.0
51.6233 43.0
51.6438 24.0
51.6642 39.0
51.6846 27.0
51.7051 64.0
51.7255 29.0
51.7459 32.0
51.7664 40.0
51.7868 38.0
51.8072 28.0
51.8277 36.0
51.8481 37.0
51.8685 38.0
51.889 35.0
51.9094 30.0
51.9298 37.0
51.9503 31.0
51.9707 24.0
51.9911 36.0
52.0116 33.0
52.032 35.0
52.0524 44.0
52.0729 33.0
52.0933 33.0
52.1137 28.0
52.1342 34.0
52.1546 25.0
52.175 31.0
52.1955 43.0
52.2159 27.0
52.2363 32.0
52.2568 24.0
52.2772 26.0
52.2976 22.0
52.3181 30.0
52.3385 37.0
52.3589 28.0
52.3794 41.0
52.3998 33.0
52.4202 25.0
52.4407 25.0
52.4611 32.0
52.4815 40.0
52.5019 26.0
52.5224 28.0
52.5428 40.0
52.5632 35.0
52.5837 46.0
52.6041 31.0
52.6245 38.0
52.645 30.0
52.6654 39.0
52.6858 36.0
52.7063 27.0
52.7267 22.0
52.7471 43.0
52.7676 36.0
52.788 23.0
52.8084 31.0
52.8289 29.0
52.8493 28.0
52.8697 26.0
52.8902 43.0
52.9106 28.0
52.931 32.0
52.9515 34.0
52.9719 35.0
52.9923 33.0
53.0128 26.0
53.0332 30.0
53.0536 38.0
53.0741 33.0
53.0945 35.0
53.1149 29.0
53.1354 41.0
53.1558 39.0
53.1762 37.0
53.1967 31.0
53.2171 27.0
53.2375 25.0
53.258 38.0
53.2784 39.0
53.2988 41.0
53.3193 28.0
53.3397 48.0
53.3601 32.0
53.3805 40.0
53.401 34.0
53.4214 29.0
53.4418 39.0
53.4623 36.0
53.4827 50.0
53.5031 39.0
53.5236 30.0
53.544 42.0
53.5644 38.0
53.5849 28.0
53.6053 44.0
53.6257 45.0
53.6462 51.0
53.6666 33.0
53.687 42.0
53.7075 68.0
53.7279 54.0
53.7483 54.0
53.7688 42.0
53.7892 55.0
53.8096 48.0
53.8301 58.0
53.8505 50.0
53.8709 63.0
53.8914 53.0
53.9118 72.0
53.9322 61.0
53.9527 47.0
53.9731 60.0
53.9935 57.0
54.014 69.0
54.0344 62.0
54.0548 56.0
54.0753 58.0
54.0957 72.0
54.1161 54.0
54.1366 46.0
54.157 58.0
54.1774 68.0
54.1979 52.0
54.2183 55.0
54.2387 75.0
54.2592 61.0
54.2796 53.0
54.3 56.0
54.3204 53.0
54.3409 54.0
54.3613 59.0
54.3817 57.0
54.4022 52.0
54.4226 60.0
54.443 52.0
54.4635 42.0
54.4839 49.0
54.5043 51.0
54.5248 39.0
54.5452 51.0
54.5656 53.0
54.5861 35.0
54.6065 45.0
54.6269 45.0
54.6474 45.0
54.6678 38.0
54.6882 50.0
54.7087 38.0
54.7291 43.0
54.7495 36.0
54.77 43.0
54.7904 22.0
54.8108 30.0
54.8313 45.0
54.8517 35.0
54.8721 37.0
54.8926 36.0
54.913 49.0
54.9334 47.0
54.9539 27.0
54.9743 37.0
54.9947 40.0
55.0152 29.0
55.0356 28.0
55.056 32.0
55.0765 38.0
55.0969 41.0
55.1173 45.0
55.1378 37.0
55.1582 33.0
55.1786 29.0
55.199 34.0
55.2195 38.0
55.2399 41.0
55.2603 29.0
55.2808 29.0
55.3012 40.0
55.3216 34.0
55.3421 36.0
55.3625 32.0
55.3829 22.0
55.4034 26.0
55.4238 31.0
55.4442 38.0
55.4647 20.0
55.4851 35.0
55.5055 36.0
55.526 30.0
55.5464 28.0
55.5668 36.0
55.5873 34.0
55.6077 27.0
55.6281 27.0
55.6486 29.0
55.669 28.0
55.6894 34.0
55.7099 36.0
55.7303 24.0
55.7507 24.0
55.7712 37.0
55.7916 26.0
55.812 25.0
55.8325 28.0
55.8529 23.0
55.8733 22.0
55.8938 34.0
55.9142 38.0
55.9346 25.0
55.9551 27.0
55.9755 30.0
55.9959 34.0
56.0164 39.0
56.0368 44.0
56.0572 44.0
56.0777 51.0
56.0981 39.0
56.1185 38.0
56.1389 37.0
56.1594 21.0
56.1798 32.0
56.2002 39.0
56.2207 31.0
56.2411 37.0
56.2615 28.0
56.282 26.0
56.3024 27.0
56.3228 27.0
56.3433 25.0
56.3637 27.0
56.3841 37.0
56.4046 24.0
56.425 28.0
56.4454 23.0
56.4659 40.0
56.4863 36.0
56.5067 26.0
56.5272 32.0
56.5476 32.0
56.568 28.0
56.5885 29.0
56.6089 38.0
56.6293 34.0
56.6498 45.0
56.6702 34.0
56.6906 33.0
56.7111 29.0
56.7315 33.0
56.7519 37.0
56.7724 35.0
56.7928 28.0
56.8132 21.0
56.8337 33.0
56.8541 27.0
56.8745 34.0
56.895 44.0
56.9154 36.0
56.9358 39.0
56.9563 36.0
56.9767 28.0
56.9971 27.0
57.0176 27.0
57.038 38.0
57.0584 32.0
57.0788 30.0
57.0993 26.0
57.1197 28.0
57.1401 39.0
57.1606 37.0
57.181 25.0
57.2014 31.0
57.2219 30.0
57.2423 31.0
57.2627 25.0
57.2832 38.0
57.3036 31.0
57.324 23.0
57.3445 25.0
57.3649 30.0
57.3853 26.0
57.4058 28.0
57.4262 32.0
57.4466 26.0
57.4671 29.0
57.4875 31.0
57.5079 25.0
57.5284 23.0
57.5488 25.0
57.5692 29.0
57.5897 27.0
57.6101 16.0
57.6305 21.0
57.651 25.0
57.6714 29.0
57.6918 29.0
57.7123 29.0
57.7327 26.0
57.7531 38.0
57.7736 29.0
57.794 38.0
57.8144 23.0
57.8349 27.0
57.8553 27.0
57.8757 31.0
57.8962 24.0
57.9166 23.0
57.937 23.0
57.9574 28.0
57.9779 32.0
57.9983 22.0
58.0187 26.0
58.0392 32.0
58.0596 25.0
58.08 29.0
58.1005 25.0
58.1209 30.0
58.1413 29.0
58.1618 38.0
58.1822 37.0
58.2026 20.0
58.2231 24.0
58.2435 35.0
58.2639 28.0
58.2844 29.0
58.3048 25.0
58.3252 20.0
58.3457 27.0
58.3661 20.0
58.3865 30.0
58.407 22.0
58.4274 29.0
58.4478 30.0
58.4683 27.0
58.4887 31.0
58.5091 32.0
58.5296 26.0
58.55 47.0
58.5704 29.0
58.5909 32.0
58.6113 34.0
58.6317 30.0
58.6522 24.0
58.6726 25.0
58.693 28.0
58.7135 33.0
58.7339 38.0
58.7543 37.0
58.7748 34.0
58.7952 24.0
58.8156 25.0
58.8361 40.0
58.8565 38.0
58.8769 24.0
58.8973 26.0
58.9178 23.0
58.9382 26.0
58.9586 32.0
58.9791 34.0
58.9995 28.0
59.0199 27.0
59.0404 30.0
59.0608 33.0
59.0812 42.0
59.1017 36.0
59.1221 19.0
59.1425 45.0
59.163 24.0
59.1834 36.0
59.2038 30.0
59.2243 28.0
59.2447 29.0
59.2651 27.0
59.2856 23.0
59.306 28.0
59.3264 42.0
59.3469 37.0
59.3673 21.0
59.3877 39.0
59.4082 33.0
59.4286 22.0
59.449 23.0
59.4695 26.0
59.4899 30.0
59.5103 27.0
59.5308 27.0
59.5512 38.0
59.5716 33.0
59.5921 23.0
59.6125 31.0
59.6329 37.0
59.6534 24.0
59.6738 36.0
59.6942 28.0
59.7147 27.0
59.7351 34.0
59.7555 31.0
59.7759 19.0
59.7964 24.0
59.8168 22.0
59.8372 29.0
59.8577 24.0
59.8781 27.0
59.8985 37.0
59.919 34.0
59.9394 25.0
59.9598 27.0
59.9803 33.0
60.0007 25.0
60.0211 39.0
60.0416 29.0
60.062 20.0
60.0824 25.0
60.1029 38.0
60.1233 44.0
60.1437 38.0
60.1642 34.0
60.1846 27.0
60.205 25.0
60.2255 31.0
60.2459 28.0
60.2663 34.0
60.2868 28.0
60.3072 29.0
60.3276 30.0
60.3481 49.0
60.3685 37.0
60.3889 42.0
60.4094 33.0
60.4298 33.0
60.4502 37.0
60.4707 34.0
60.4911 39.0
60.5115 21.0
60.532 40.0
60.5524 40.0
60.5728 34.0
60.5933 32.0
60.6137 25.0
60.6341 22.0
60.6546 33.0
60.675 24.0
60.6954 27.0
60.7158 36.0
60.7363 26.0
60.7567 27.0
60.7771 34.0
60.7976 28.0
60.818 34.0
60.8384 16.0
60.8589 28.0
60.8793 22.0
60.8997 36.0
60.9202 28.0
60.9406 21.0
60.961 30.0
60.9815 25.0
61.0019 27.0
61.0223 36.0
61.0428 35.0
61.0632 33.0
61.0836 24.0
61.1041 42.0
61.1245 30.0
61.1449 41.0
61.1654 31.0
61.1858 31.0
61.2062 27.0
61.2267 28.0
61.2471 25.0
61.2675 28.0
61.288 33.0
61.3084 41.0
61.3288 31.0
61.3493 26.0
61.3697 39.0
61.3901 32.0
61.4106 25.0
61.431 40.0
61.4514 25.0
61.4719 29.0
61.4923 33.0
61.5127 38.0
61.5332 41.0
61.5536 28.0
61.574 33.0
61.5945 36.0
61.6149 34.0
61.6353 29.0
61.6557 27.0
61.6762 35.0
61.6966 37.0
61.717 35.0
61.7375 39.0
61.7579 32.0
61.7783 53.0
61.7988 43.0
61.8192 41.0
61.8396 37.0
61.8601 34.0
61.8805 40.0
61.9009 47.0
61.9214 40.0
61.9418 31.0
61.9622 40.0
61.9827 38.0
62.0031 42.0
62.0235 30.0
62.044 35.0
62.0644 32.0
62.0848 31.0
62.1053 37.0
62.1257 36.0
62.1461 37.0
62.1666 43.0
62.187 46.0
62.2074 37.0
62.2279 36.0
62.2483 45.0
62.2687 46.0
62.2892 38.0
62.3096 37.0
62.33 23.0
62.3505 39.0
62.3709 33.0
62.3913 45.0
62.4118 43.0
62.4322 48.0
62.4526 36.0
62.4731 38.0
62.4935 45.0
62.5139 46.0
62.5343 48.0
62.5548 26.0
62.5752 37.0
62.5956 42.0
62.6161 34.0
62.6365 44.0
62.6569 36.0
62.6774 31.0
62.6978 47.0
62.7182 42.0
62.7387 46.0
62.7591 35.0
62.7795 43.0
62.8 33.0
62.8204 42.0
62.8408 30.0
62.8613 32.0
62.8817 38.0
62.9021 34.0
62.9226 32.0
62.943 28.0
62.9634 33.0
62.9839 24.0
63.0043 34.0
63.0247 48.0
63.0452 28.0
63.0656 38.0
63.086 41.0
63.1065 28.0
63.1269 35.0
63.1473 27.0
63.1678 22.0
63.1882 36.0
63.2086 31.0
63.2291 24.0
63.2495 24.0
63.2699 38.0
63.2904 35.0
63.3108 20.0
63.3312 31.0
63.3517 30.0
63.3721 28.0
63.3925 36.0
63.413 33.0
63.4334 26.0
63.4538 37.0
63.4742 25.0
63.4947 24.0
63.5151 34.0
63.5355 32.0
63.556 31.0
63.5764 27.0
63.5968 39.0
63.6173 28.0
63.6377 24.0
63.6581 37.0
63.6786 37.0
63.699 29.0
63.7194 37.0
63.7399 37.0
63.7603 40.0
63.7807 35.0
63.8012 33.0
63.8216 34.0
63.842 33.0
63.8625 26.0
63.8829 46.0
63.9033 30.0
63.9238 38.0
63.9442 36.0
63.9646 43.0
63.9851 28.0
64.0055 35.0
64.0259 39.0
64.0464 34.0
64.0668 44.0
64.0872 37.0
64.1077 44.0
64.1281 45.0
64.1485 25.0
64.169 53.0
64.1894 30.0
64.2098 30.0
64.2303 26.0
64.2507 27.0
64.2711 27.0
64.2916 24.0
64.312 29.0
64.3324 35.0
64.3528 25.0
64.3733 14.0
64.3937 32.0
64.4141 21.0
64.4346 37.0
64.455 32.0
64.4754 25.0
64.4959 25.0
64.5163 19.0
64.5367 28.0
64.5572 31.0
64.5776 31.0
64.598 27.0
64.6185 34.0
64.6389 25.0
64.6593 36.0
64.6798 35.0
64.7002 30.0
64.7206 44.0
64.7411 28.0
64.7615 24.0
64.7819 23.0
64.8024 26.0
64.8228 24.0
64.8432 25.0
64.8637 39.0
64.8841 31.0
64.9045 28.0
64.925 31.0
64.9454 26.0
64.9658 32.0
64.9863 25.0
65.0067 28.0
65.0271 38.0
65.0476 28.0
65.068 32.0
65.0884 25.0
65.1089 26.0
65.1293 31.0
65.1497 29.0
65.1702 26.0
65.1906 36.0
65.211 35.0
65.2315 30.0
65.2519 29.0
65.2723 30.0
65.2927 32.0
65.3132 23.0
65.3336 32.0
65.354 24.0
65.3745 34.0
65.3949 33.0
65.4153 36.0
65.4358 27.0
65.4562 33.0
65.4766 27.0
65.4971 29.0
65.5175 25.0
65.5379 38.0
65.5584 29.0
65.5788 27.0
65.5992 40.0
65.6197 35.0
65.6401 26.0
65.6605 35.0
65.681 37.0
65.7014 30.0
65.7218 27.0
65.7423 29.0
65.7627 33.0
65.7831 32.0
65.8036 40.0
65.824 28.0
65.8444 23.0
65.8649 31.0
65.8853 21.0
65.9057 25.0
65.9262 32.0
65.9466 43.0
65.967 35.0
65.9875 38.0
66.0079 35.0
66.0283 35.0
66.0488 25.0
66.0692 35.0
66.0896 35.0
66.1101 39.0
66.1305 25.0
66.1509 28.0
66.1714 36.0
66.1918 35.0
66.2122 34.0
66.2326 31.0
66.2531 50.0
66.2735 33.0
66.2939 37.0
66.3144 30.0
66.3348 35.0
66.3552 29.0
66.3757 34.0
66.3961 42.0
66.4165 37.0
66.437 41.0
66.4574 32.0
66.4778 39.0
66.4983 35.0
66.5187 34.0
66.5391 43.0
66.5596 44.0
66.58 40.0
66.6004 42.0
66.6209 41.0
66.6413 41.0
66.6617 36.0
66.6822 33.0
66.7026 39.0
66.723 42.0
66.7435 40.0
66.7639 47.0
66.7843 36.0
66.8048 29.0
66.8252 33.0
66.8456 39.0
66.8661 32.0
66.8865 39.0
66.9069 40.0
66.9274 28.0
66.9478 29.0
66.9682 33.0
66.9887 17.0
67.0091 27.0
67.0295 33.0
67.05 32.0
67.0704 31.0
67.0908 29.0
67.1112 37.0
67.1317 27.0
67.1521 33.0
67.1725 35.0
67.193 36.0
67.2134 27.0
67.2338 33.0
67.2543 36.0
67.2747 33.0
67.2951 26.0
67.3156 36.0
67.336 23.0
67.3564 27.0
67.3769 31.0
67.3973 24.0
67.4177 39.0
67.4382 19.0
67.4586 36.0
67.479 34.0
67.4995 26.0
67.5199 18.0
67.5403 21.0
67.5608 39.0
67.5812 32.0
67.6016 25.0
67.6221 29.0
67.6425 38.0
67.6629 29.0
67.6834 37.0
67.7038 30.0
67.7242 32.0
67.7447 29.0
67.7651 38.0
67.7855 29.0
67.806 34.0
67.8264 28.0
67.8468 22.0
67.8673 28.0
67.8877 25.0
67.9081 29.0
67.9286 34.0
67.949 40.0
67.9694 39.0
67.9899 36.0
68.0103 41.0
68.0307 39.0
68.0511 34.0
68.0716 32.0
68.092 28.0
68.1124 32.0
68.1329 30.0
68.1533 25.0
68.1737 22.0
68.1942 18.0
68.2146 33.0
68.235 40.0
68.2555 36.0
68.2759 22.0
68.2963 27.0
68.3168 34.0
68.3372 32.0
68.3576 32.0
68.3781 40.0
68.3985 35.0
68.4189 37.0
68.4394 22.0
68.4598 33.0
68.4802 38.0
68.5007 31.0
68.5211 19.0
68.5415 34.0
68.562 29.0
68.5824 31.0
68.6028 35.0
68.6233 27.0
68.6437 24.0
68.6641 29.0
68.6846 32.0
68.705 40.0
68.7254 28.0
68.7459 25.0
68.7663 32.0
68.7867 22.0
68.8072 34.0
68.8276 37.0
68.848 35.0
68.8685 41.0
68.8889 32.0
68.9093 31.0
68.9297 33.0
68.9502 43.0
68.9706 21.0
68.991 32.0
69.0115 39.0
69.0319 30.0
69.0523 44.0
69.0728 39.0
69.0932 33.0
69.1136 34.0
69.1341 41.0
69.1545 30.0
69.1749 30.0
69.1954 34.0
69.2158 37.0
69.2362 32.0
69.2567 30.0
69.2771 32.0
69.2975 22.0
69.318 33.0
69.3384 29.0
69.3588 27.0
69.3793 36.0
69.3997 36.0
69.4201 43.0
69.4406 33.0
69.461 32.0
69.4814 18.0
69.5019 37.0
69.5223 43.0
69.5427 34.0
69.5632 30.0
69.5836 31.0
69.604 45.0
69.6245 37.0
69.6449 42.0
69.6653 25.0
69.6858 31.0
69.7062 38.0
69.7266 31.0
69.7471 37.0
69.7675 33.0
69.7879 37.0
69.8084 38.0
69.8288 36.0
69.8492 39.0
69.8696 43.0
69.8901 38.0
69.9105 47.0
69.9309 40.0
69.9514 39.0
69.9718 35.0
69.9922 28.0
70.0127 43.0
70.0331 31.0
70.0535 32.0
70.074 44.0
70.0944 40.0
70.1148 36.0
70.1353 36.0
70.1557 26.0
70.1761 34.0
70.1966 39.0
70.217 35.0
70.2374 32.0
70.2579 36.0
70.2783 15.0
70.2987 33.0
70.3192 35.0
70.3396 32.0
70.36 47.0
70.3805 39.0
70.4009 28.0
70.4213 30.0
70.4418 35.0
70.4622 39.0
70.4826 44.0
70.5031 29.0
70.5235 26.0
70.5439 29.0
70.5644 34.0
70.5848 32.0
70.6052 41.0
70.6257 35.0
70.6461 34.0
70.6665 31.0
70.687 28.0
70.7074 26.0
70.7278 21.0
70.7483 31.0
70.7687 25.0
70.7891 33.0
70.8095 28.0
70.83 29.0
70.8504 23.0
70.8708 24.0
70.8913 28.0
70.9117 30.0
70.9321 27.0
70.9526 38.0
70.973 24.0
70.9934 34.0
71.0139 34.0
71.0343 35.0
71.0547 29.0
71.0752 38.0
71.0956 22.0
71.116 32.0
71.1365 37.0
71.1569 27.0
71.1773 27.0
71.1978 39.0
71.2182 27.0
71.2386 27.0
71.2591 29.0
71.2795 27.0
71.2999 35.0
71.3204 25.0
71.3408 21.0
71.3612 28.0
71.3817 35.0
71.4021 24.0
71.4225 36.0
71.443 34.0
71.4634 24.0
71.4838 27.0
71.5043 23.0
71.5247 25.0
71.5451 22.0
71.5656 31.0
71.586 44.0
71.6064 31.0
71.6269 33.0
71.6473 33.0
71.6677 35.0
71.6881 30.0
71.7086 33.0
71.729 38.0
71.7494 26.0
71.7699 27.0
71.7903 37.0
71.8107 26.0
71.8312 26.0
71.8516 33.0
71.872 22.0
71.8925 23.0
71.9129 25.0
71.9333 21.0
71.9538 30.0
71.9742 36.0
71.9946 34.0
72.0151 27.0
72.0355 34.0
72.0559 35.0
72.0764 25.0
72.0968 39.0
72.1172 37.0
72.1377 33.0
72.1581 22.0
72.1785 29.0
72.199 34.0
72.2194 24.0
72.2398 28.0
72.2603 32.0
72.2807 26.0
72.3011 19.0
72.3216 27.0
72.342 31.0
72.3624 28.0
72.3829 39.0
72.4033 33.0
72.4237 29.0
72.4442 31.0
72.4646 32.0
72.485 21.0
72.5055 24.0
72.5259 35.0
72.5463 27.0
72.5668 45.0
72.5872 23.0
72.6076 42.0
72.628 45.0
72.6485 41.0
72.6689 31.0
72.6893 25.0
72.7098 38.0
72.7302 34.0
72.7506 27.0
72.7711 28.0
72.7915 29.0
72.8119 23.0
72.8324 34.0
72.8528 28.0
72.8732 21.0
72.8937 26.0
72.9141 36.0
72.9345 30.0
72.955 42.0
72.9754 37.0
72.9958 34.0
73.0163 28.0
73.0367 23.0
73.0571 22.0
73.0776 25.0
73.098 25.0
73.1184 24.0
73.1389 27.0
73.1593 35.0
73.1797 23.0
73.2002 30.0
73.2206 35.0
73.241 23.0
73.2615 46.0
73.2819 22.0
73.3023 31.0
73.3228 37.0
73.3432 38.0
73.3636 30.0
73.3841 24.0
73.4045 31.0
73.4249 23.0
73.4454 26.0
73.4658 32.0
73.4862 32.0
73.5066 22.0
73.5271 28.0
73.5475 33.0
73.5679 30.0
73.5884 30.0
73.6088 32.0
73.6292 21.0
73.6497 29.0
73.6701 39.0
73.6905 35.0
73.711 25.0
73.7314 34.0
73.7518 39.0
73.7723 28.0
73.7927 27.0
73.8131 21.0
73.8336 32.0
73.854 32.0
73.8744 17.0
73.8949 32.0
73.9153 34.0
73.9357 30.0
73.9562 29.0
73.9766 35.0
73.997 35.0
74.0175 36.0
74.0379 36.0
74.0583 24.0
74.0788 31.0
74.0992 39.0
74.1196 31.0
74.1401 34.0
74.1605 28.0
74.1809 27.0
74.2014 27.0
74.2218 24.0
74.2422 26.0
74.2627 21.0
74.2831 24.0
74.3035 24.0
74.324 28.0
74.3444 28.0
74.3648 27.0
74.3853 22.0
74.4057 18.0
74.4261 40.0
74.4465 28.0
74.467 30.0
74.4874 22.0
74.5078 21.0
74.5283 33.0
74.5487 35.0
74.5691 30.0
74.5896 29.0
74.61 31.0
74.6304 27.0
74.6509 28.0
74.6713 27.0
74.6917 35.0
74.7122 31.0
74.7326 27.0
74.753 28.0
74.7735 22.0
74.7939 31.0
74.8143 34.0
74.8348 21.0
74.8552 30.0
74.8756 29.0
74.8961 32.0
74.9165 23.0
74.9369 27.0
74.9574 32.0
74.9778 21.0
74.9982 33.0
75.0187 19.0
75.0391 35.0
75.0595 20.0
75.08 27.0
75.1004 27.0
75.1208 27.0
75.1413 33.0
75.1617 30.0
75.1821 41.0
75.2026 26.0
75.223 36.0
75.2434 27.0
75.2639 27.0
75.2843 30.0
75.3047 34.0
75.3252 35.0
75.3456 31.0
75.366 44.0
75.3864 36.0
75.4069 36.0
75.4273 38.0
75.4477 32.0
75.4682 37.0
75.4886 37.0
75.509 23.0
75.5295 27.0
75.5499 22.0
75.5703 28.0
75.5908 32.0
75.6112 27.0
75.6316 28.0
75.6521 19.0
75.6725 43.0
75.6929 23.0
75.7134 28.0
75.7338 23.0
75.7542 28.0
75.7747 29.0
75.7951 35.0
75.8155 32.0
75.836 18.0
75.8564 27.0
75.8768 31.0
75.8973 19.0
75.9177 30.0
75.9381 28.0
75.9586 19.0
75.979 30.0
75.9994 35.0
76.0199 29.0
76.0403 27.0
76.0607 33.0
76.0812 27.0
76.1016 31.0
76.122 34.0
76.1425 31.0
76.1629 28.0
76.1833 27.0
76.2038 34.0
76.2242 41.0
76.2446 28.0
76.265 30.0
76.2855 27.0
76.3059 27.0
76.3263 25.0
76.3468 44.0
76.3672 46.0
76.3876 28.0
76.4081 18.0
76.4285 30.0
76.4489 28.0
76.4694 27.0
76.4898 27.0
76.5102 34.0
76.5307 29.0
76.5511 24.0
76.5715 23.0
76.592 23.0
76.6124 29.0
76.6328 28.0
76.6533 25.0
76.6737 28.0
76.6941 37.0
76.7146 40.0
76.735 39.0
76.7554 24.0
76.7759 24.0
76.7963 25.0
76.8167 26.0
76.8372 31.0
76.8576 27.0
76.878 35.0
76.8985 27.0
76.9189 24.0
76.9393 26.0
76.9598 32.0
76.9802 26.0
77.0006 31.0
77.0211 35.0
77.0415 38.0
77.0619 21.0
77.0824 21.0
77.1028 33.0
77.1232 32.0
77.1437 32.0
77.1641 26.0
77.1845 26.0
77.2049 25.0
77.2254 12.0
77.2458 27.0
77.2662 17.0
77.2867 34.0
77.3071 29.0
77.3275 21.0
77.348 25.0
77.3684 29.0
77.3888 25.0
77.4093 30.0
77.4297 30.0
77.4501 28.0
77.4706 26.0
77.491 29.0
77.5114 40.0
77.5319 29.0
77.5523 34.0
77.5727 25.0
77.5932 28.0
77.6136 28.0
77.634 40.0
77.6545 32.0
77.6749 32.0
77.6953 35.0
77.7158 27.0
77.7362 31.0
77.7566 39.0
77.7771 21.0
77.7975 47.0
77.8179 41.0
77.8384 29.0
77.8588 29.0
77.8792 28.0
77.8997 37.0
77.9201 30.0
77.9405 32.0
77.961 34.0
77.9814 28.0
78.0018 21.0
78.0223 26.0
78.0427 32.0
78.0631 26.0
78.0835 24.0
78.104 25.0
78.1244 41.0
78.1448 27.0
78.1653 30.0
78.1857 22.0
78.2061 31.0
78.2266 24.0
78.247 28.0
78.2674 29.0
78.2879 36.0
78.3083 31.0
78.3287 24.0
78.3492 24.0
78.3696 30.0
78.39 26.0
78.4105 28.0
78.4309 32.0
78.4513 28.0
78.4718 35.0
78.4922 34.0
78.5126 27.0
78.5331 25.0
78.5535 19.0
78.5739 31.0
78.5944 42.0
78.6148 29.0
78.6352 39.0
78.6557 29.0
78.6761 29.0
78.6965 53.0
78.717 28.0
78.7374 34.0
78.7578 35.0
78.7783 29.0
78.7987 41.0
78.8191 34.0
78.8396 18.0
78.86 34.0
78.8804 30.0
78.9009 32.0
78.9213 29.0
78.9417 30.0
78.9622 20.0
78.9826 25.0
79.003 25.0
79.0234 23.0
79.0439 28.0
79.0643 27.0
79.0847 36.0
79.1052 33.0
79.1256 33.0
79.146 32.0
79.1665 29.0
79.1869 16.0
79.2073 22.0
79.2278 33.0
79.2482 19.0
79.2686 28.0
79.2891 24.0
79.3095 24.0
79.3299 21.0
79.3504 29.0
79.3708 26.0
79.3912 32.0
79.4117 29.0
79.4321 22.0
79.4525 32.0
79.473 34.0
79.4934 33.0
79.5138 25.0
79.5343 31.0
79.5547 33.0
79.5751 28.0
79.5956 31.0
79.616 23.0
79.6364 37.0
79.6569 28.0
79.6773 34.0
79.6977 27.0
79.7182 28.0
79.7386 26.0
79.759 34.0
79.7795 35.0
79.7999 19.0
79.8203 34.0
79.8408 23.0
79.8612 25.0
79.8816 29.0
79.9021 28.0
79.9225 38.0
79.9429 36.0
79.9633 26.0
79.9838 31.0
80.0042 33.0
80.0246 20.0
80.0451 29.0
80.0655 28.0
80.0859 26.0
80.1064 37.0
80.1268 37.0
80.1472 32.0
80.1677 30.0
80.1881 27.0
80.2085 29.0
80.229 32.0
80.2494 35.0
80.2698 25.0
80.2903 30.0
80.3107 46.0
80.3311 28.0
80.3516 37.0
80.372 38.0
80.3924 26.0
80.4129 29.0
80.4333 32.0
80.4537 29.0
80.4742 29.0
80.4946 25.0
80.515 27.0
80.5355 31.0
80.5559 38.0
80.5763 27.0
80.5968 21.0
80.6172 31.0
80.6376 32.0
80.6581 20.0
80.6785 29.0
80.6989 27.0
80.7194 34.0
80.7398 31.0
80.7602 27.0
80.7807 18.0
80.8011 33.0
80.8215 30.0
80.8419 31.0
80.8624 28.0
80.8828 24.0
80.9032 28.0
80.9237 35.0
80.9441 28.0
80.9645 26.0
80.985 25.0
81.0054 29.0
81.0258 35.0
81.0463 32.0
81.0667 24.0
81.0871 36.0
81.1076 30.0
81.128 39.0
81.1484 29.0
81.1689 23.0
81.1893 33.0
81.2097 31.0
81.2302 36.0
81.2506 36.0
81.271 27.0
81.2915 23.0
81.3119 27.0
81.3323 26.0
81.3528 32.0
81.3732 37.0
81.3936 36.0
81.4141 37.0
81.4345 31.0
81.4549 33.0
81.4754 31.0
81.4958 45.0
81.5162 24.0
81.5367 29.0
81.5571 27.0
81.5775 27.0
81.598 29.0
81.6184 28.0
81.6388 17.0
81.6593 43.0
81.6797 25.0
81.7001 28.0
81.7206 25.0
81.741 22.0
81.7614 26.0
81.7818 32.0
81.8023 31.0
81.8227 36.0
81.8431 42.0
81.8636 38.0
81.884 33.0
81.9044 31.0
81.9249 20.0
81.9453 23.0
81.9657 29.0
81.9862 36.0
82.0066 28.0
82.027 27.0
82.0475 23.0
82.0679 38.0
82.0883 24.0
82.1088 31.0
82.1292 39.0
82.1496 22.0
82.1701 34.0
82.1905 28.0
82.2109 37.0
82.2314 26.0
82.2518 37.0
82.2722 24.0
82.2927 25.0
82.3131 22.0
82.3335 31.0
82.354 27.0
82.3744 31.0
82.3948 23.0
82.4153 25.0
82.4357 33.0
82.4561 28.0
82.4766 26.0
82.497 34.0
82.5174 24.0
82.5379 23.0
82.5583 32.0
82.5787 40.0
82.5992 29.0
82.6196 32.0
82.64 38.0
82.6604 35.0
82.6809 31.0
82.7013 28.0
82.7217 32.0
82.7422 38.0
82.7626 28.0
82.783 27.0
82.8035 28.0
82.8239 22.0
82.8443 20.0
82.8648 31.0
82.8852 19.0
82.9056 24.0
82.9261 28.0
82.9465 46.0
82.9669 24.0
82.9874 26.0
83.0078 24.0
83.0282 29.0
83.0487 30.0
83.0691 32.0
83.0895 23.0
83.11 25.0
83.1304 31.0
83.1508 33.0
83.1713 20.0
83.1917 35.0
83.2121 19.0
83.2326 20.0
83.253 25.0
83.2734 13.0
83.2939 36.0
83.3143 27.0
83.3347 28.0
83.3552 32.0
83.3756 16.0
83.396 31.0
83.4165 17.0
83.4369 33.0
83.4573 25.0
83.4778 29.0
83.4982 21.0
83.5186 30.0
83.5391 22.0
83.5595 42.0
83.5799 33.0
83.6003 31.0
83.6208 34.0
83.6412 39.0
83.6616 31.0
83.6821 18.0
83.7025 25.0
83.7229 34.0
83.7434 34.0
83.7638 13.0
83.7842 26.0
83.8047 29.0
83.8251 25.0
83.8455 25.0
83.866 24.0
83.8864 27.0
83.9068 26.0
83.9273 18.0
83.9477 23.0
83.9681 38.0
83.9886 30.0
84.009 34.0
84.0294 33.0
84.0499 32.0
84.0703 28.0
84.0907 25.0
84.1112 20.0
84.1316 37.0
84.152 21.0
84.1725 30.0
84.1929 29.0
84.2133 27.0
84.2338 15.0
84.2542 29.0
84.2746 23.0
84.2951 29.0
84.3155 26.0
84.3359 28.0
84.3564 20.0
84.3768 28.0
84.3972 31.0
84.4177 27.0
84.4381 24.0
84.4585 24.0
84.4789 27.0
84.4994 19.0
84.5198 24.0
84.5402 25.0
84.5607 30.0
84.5811 19.0
84.6015 37.0
84.622 35.0
84.6424 27.0
84.6628 21.0
84.6833 18.0
84.7037 28.0
84.7241 33.0
84.7446 28.0
84.765 23.0
84.7854 28.0
84.8059 22.0
84.8263 19.0
84.8467 28.0
84.8672 26.0
84.8876 30.0
84.908 26.0
84.9285 30.0
84.9489 31.0
84.9693 30.0
84.9898 23.0
85.0102 25.0
85.0306 25.0
85.0511 25.0
85.0715 25.0
85.0919 26.0
85.1124 12.0
85.1328 33.0
85.1532 30.0
85.1737 26.0
85.1941 34.0
85.2145 23.0
85.235 29.0
85.2554 32.0
85.2758 26.0
85.2963 27.0
85.3167 23.0
85.3371 30.0
85.3576 25.0
85.378 34.0
85.3984 31.0
85.4188 25.0
85.4393 31.0
85.4597 29.0
85.4801 26.0
85.5006 21.0
85.521 27.0
85.5414 28.0
85.5619 22.0
85.5823 30.0
85.6027 25.0
85.6232 18.0
85.6436 28.0
85.664 41.0
85.6845 24.0
85.7049 23.0
85.7253 24.0
85.7458 27.0
85.7662 31.0
85.7866 32.0
85.8071 25.0
85.8275 22.0
85.8479 42.0
85.8684 25.0
85.8888 29.0
85.9092 21.0
85.9297 26.0
85.9501 25.0
85.9705 26.0
85.991 29.0
86.0114 27.0
86.0318 21.0
86.0523 26.0
86.0727 34.0
86.0931 34.0
86.1136 30.0
86.134 25.0
86.1544 35.0
86.1749 26.0
86.1953 36.0
86.2157 26.0
86.2362 30.0
86.2566 29.0
86.277 30.0
86.2975 21.0
86.3179 27.0
86.3383 26.0
86.3587 33.0
86.3792 25.0
86.3996 22.0
86.42 30.0
86.4405 36.0
86.4609 43.0
86.4813 19.0
86.5018 35.0
86.5222 25.0
86.5426 31.0
86.5631 29.0
86.5835 23.0
86.6039 38.0
86.6244 29.0
86.6448 21.0
86.6652 28.0
86.6857 27.0
86.7061 19.0
86.7265 26.0
86.747 26.0
86.7674 26.0
86.7878 25.0
86.8083 24.0
86.8287 20.0
86.8491 29.0
86.8696 27.0
86.89 31.0
86.9104 30.0
86.9309 17.0
86.9513 33.0
86.9717 27.0
86.9922 33.0
87.0126 30.0
87.033 31.0
87.0535 29.0
87.0739 28.0
87.0943 31.0
87.1148 35.0
87.1352 33.0
87.1556 25.0
87.1761 23.0
87.1965 26.0
87.2169 28.0
87.2373 27.0
87.2578 26.0
87.2782 17.0
87.2986 16.0
87.3191 31.0
87.3395 26.0
87.3599 28.0
87.3804 36.0
87.4008 30.0
87.4212 24.0
87.4417 24.0
87.4621 24.0
87.4825 32.0
87.503 28.0
87.5234 32.0
87.5438 18.0
87.5643 27.0
87.5847 25.0
87.6051 36.0
87.6256 25.0
87.646 24.0
87.6664 24.0
87.6869 25.0
87.7073 30.0
87.7277 41.0
87.7482 17.0
87.7686 26.0
87.789 23.0
87.8095 23.0
87.8299 26.0
87.8503 23.0
87.8708 37.0
87.8912 32.0
87.9116 41.0
87.9321 24.0
87.9525 25.0
87.9729 28.0
87.9934 30.0
88.0138 42.0
88.0342 28.0
88.0547 25.0
88.0751 29.0
88.0955 29.0
88.116 34.0
88.1364 18.0
88.1568 33.0
88.1772 36.0
88.1977 30.0
88.2181 29.0
88.2385 27.0
88.259 28.0
88.2794 20.0
88.2998 28.0
88.3203 35.0
88.3407 35.0
88.3611 44.0
88.3816 36.0
88.402 40.0
88.4224 33.0
88.4429 17.0
88.4633 26.0
88.4837 30.0
88.5042 36.0
88.5246 35.0
88.545 37.0
88.5655 31.0
88.5859 21.0
88.6063 26.0
88.6268 32.0
88.6472 35.0
88.6676 26.0
88.6881 39.0
88.7085 28.0
88.7289 29.0
88.7494 27.0
88.7698 39.0
88.7902 29.0
88.8107 25.0
88.8311 37.0
88.8515 25.0
88.872 42.0
88.8924 19.0
88.9128 41.0
88.9333 41.0
88.9537 25.0
88.9741 29.0
88.9946 33.0
89.015 20.0
89.0354 35.0
89.0558 25.0
89.0763 27.0
89.0967 24.0
89.1171 25.0
89.1376 41.0
89.158 28.0
89.1784 21.0
89.1989 22.0
89.2193 36.0
89.2397 28.0
89.2602 30.0
89.2806 36.0
89.301 21.0
89.3215 28.0
89.3419 20.0
89.3623 31.0
89.3828 32.0
89.4032 28.0
89.4236 32.0
89.4441 32.0
89.4645 24.0
89.4849 30.0
89.5054 24.0
89.5258 26.0
89.5462 20.0
89.5667 34.0
89.5871 25.0
89.6075 36.0
89.628 26.0
89.6484 18.0
89.6688 30.0
89.6893 32.0
89.7097 36.0
89.7301 30.0
89.7506 38.0
89.771 29.0
89.7914 31.0
89.8119 24.0
89.8323 34.0
89.8527 27.0
89.8732 35.0
89.8936 26.0
89.914 22.0
89.9345 25.0
89.9549 33.0
89.9753 33.0
89.9957 27.0
90.0162 28.0
90.0366 32.0
90.057 29.0
90.0775 27.0
90.0979 36.0
