9.9 54.0
9.9204 37.0
9.9409 54.0
9.9613 46.0
9.9817 48.0
10.0022 46.0
10.0226 39.0
10.043 34.0
10.0635 45.0
10.0839 44.0
10.1043 48.0
10.1248 40.0
10.1452 39.0
10.1656 45.0
10.1861 51.0
10.2065 43.0
10.2269 45.0
10.2474 51.0
10.2678 39.0
10.2882 49.0
10.3087 40.0
10.3291 39.0
10.3495 28.0
10.3699 37.0
10.3904 45.0
10.4108 33.0
10.4312 32.0
10.4517 31.0
10.4721 37.0
10.4925 44.0
10.513 36.0
10.5334 37.0
10.5538 38.0
10.5743 31.0
10.5947 30.0
10.6151 34.0
10.6356 41.0
10.656 34.0
10.6764 47.0
10.6969 40.0
10.7173 32.0
10.7377 44.0
10.7582 42.0
10.7786 42.0
10.799 28.0
10.8195 49.0
10.8399 45.0
10.8603 37.0
10.8808 42.0
10.9012 39.0
10.9216 38.0
10.9421 37.0
10.9625 44.0
10.9829 28.0
11.0034 35.0
11.0238 35.0
11.0442 52.0
11.0647 43.0
11.0851 43.0
11.1055 33.0
11.126 38.0
11.1464 30.0
11.1668 30.0
11.1873 28.0
11.2077 33.0
11.2281 30.0
11.2486 31.0
11.269 28.0
11.2894 41.0
11.3098 41.0
11.3303 40.0
11.3507 31.0
11.3711 37.0
11.3916 33.0
11.412 40.0
11.4324 25.0
11.4529 44.0
11.4733 32.0
11.4937 40.0
11.5142 37.0
11.5346 39.0
11.555 28.0
11.5755 42.0
11.5959 35.0
11.6163 38.0
11.6368 32.0
11.6572 27.0
11.6776 30.0
11.6981 33.0
11.7185 43.0
11.7389 30.0
11.7594 32.0
11.7798 44.0
11.8002 34.0
11.8207 39.0
11.8411 34.0
11.8615 36.0
11.882 27.0
11.9024 33.0
11.9228 28.0
11.9433 41.0
11.9637 29.0
11.9841 23.0
12.0046 41.0
12.025 42.0
12.0454 28.0
12.0659 37.0
12.0863 25.0
12.1067 35.0
12.1272 45.0
12.1476 39.0
12.168 37.0
12.1884 17.0
12.2089 25.0
12.2293 30.0
12.2497 32.0
12.2702 32.0
12.2906 28.0
12.311 33.0
12.3315 32.0
12.3519 28.0
12.3723 28.0
12.3928 36.0
12.4132 39.0
12.4336 35.0
12.4541 21.0
12.4745 26.0
12.4949 42.0
12.5154 30.0
12.5358 28.0
12.5562 31.0
12.5767 36.0
12.5971 31.0
12.6175 23.0
12.638 40.0
12.6584 32.0
12.6788 39.0
12.6993 33.0
12.7197 41.0
12.7401 31.0
12.7606 33.0
12.781 27.0
12.8014 32.0
12.8219 33.0
12.8423 31.0
12.8627 30.0
12.8832 27.0
12.9036 33.0
12.924 43.0
12.9445 21.0
12.9649 31.0
12.9853 30.0
13.0058 33.0
13.0262 37.0
13.0466 28.0
13.0671 32.0
13.0875 34.0
13.1079 34.0
13.1283 34.0
13.1488 26.0
13.1692 31.0
13.1896 36.0
13.2101 28.0
13.2305 35.0
13.2509 35.0
13.2714 43.0
13.2918 25.0
13.3122 20.0
13.3327 20.0
13.3531 24.0
13.3735 26.0
13.394 35.0
13.4144 29.0
13.4348 31.0
13.4553 27.0
13.4757 36.0
13.4961 31.0
13.5166 36.0
13.537 29.0
13.5574 27.0
13.5779 29.0
13.5983 28.0
13.6187 28.0
13.6392 24.0
13.6596 33.0
13.68 36.0
13.7005 24.0
13.7209 33.0
13.7413 38.0
13.7618 33.0
13.7822 25.0
13.8026 34.0
13.8231 28.0
13.8435 40.0
13.8639 27.0
13.8844 27.0
13.9048 37.0
13.9252 25.0
13.9457 24.0
13.9661 23.0
13.9865 22.0
14.007 23.0
14.0274 18.0
14.0478 19.0
14.0682 32.0
14.0887 26.0
14.1091 21.0
14.1295 29.0
14.15 28.0
14.1704 28.0
14.1908 33.0
14.2113 31.0
14.2317 36.0
14.2521 27.0
14.2726 32.0
14.293 28.0
14.3134 29.0
14.3339 37.0
14.3543 28.0
14.3747 33.0
14.3952 25.0
14.4156 29.0
14.436 26.0
14.4565 34.0
14.4769 29.0
14.4973 32.0
14.5178 31.0
14.5382 36.0
14.5586 31.0
14.5791 28.0
14.5995 29.0
14.6199 29.0
14.6404 24.0
14.6608 33.0
14.6812 26.0
14.7017 31.0
14.7221 30.0
14.7425 34.0
14.763 24.0
14.7834 18.0
14.8038 29.0
14.8243 22.0
14.8447 31.0
14.8651 46.0
14.8856 27.0
14.906 29.0
14.9264 26.0
14.9468 25.0
14.9673 25.0
14.9877 29.0
15.0081 33.0
15.0286 34.0
15.049 22.0
15.0694 27.0
15.0899 30.0
15.1103 30.0
15.1307 31.0
15.1512 26.0
15.1716 21.0
15.192 33.0
15.2125 28.0
15.2329 30.0
15.2533 24.0
15.2738 17.0
15.2942 27.0
15.3146 26.0
15.3351 24.0
15.3555 29.0
15.3759 36.0
15.3964 32.0
15.4168 31.0
15.4372 31.0
15.4577 28.0
15.4781 28.0
15.4985 31.0
15.519 40.0
15.5394 21.0
15.5598 25.0
15.5803 35.0
15.6007 30.0
15.6211 30.0
15.6416 25.0
15.662 35.0
15.6824 35.0
15.7029 29.0
15.7233 35.0
15.7437 36.0
15.7642 28.0
15.7846 31.0
15.805 31.0
15.8255 30.0
15.8459 36.0
15.8663 25.0
15.8867 31.0
15.9072 32.0
15.9276 24.0
15.948 22.0
15.9685 31.0
15.9889 35.0
16.0093 30.0
16.0298 26.0
16.0502 34.0
16.0706 22.0
16.0911 44.0
16.1115 23.0
16.1319 36.0
16.1524 34.0
16.1728 23.0
16.1932 33.0
16.2137 22.0
16.2341 28.0
16.2545 33.0
16.275 25.0
16.2954 21.0
16.3158 33.0
16.3363 23.0
16.3567 35.0
16.3771 30.0
16.3976 36.0
16.418 34.0
16.4384 25.0
16.4589 31.0
16.4793 32.0
16.4997 38.0
16.5202 32.0
16.5406 30.0
16.561 33.0
16.5815 33.0
16.6019 19.0
16.6223 33.0
16.6428 26.0
16.6632 28.0
16.6836 40.0
16.7041 29.0
16.7245 24.0
16.7449 24.0
16.7653 27.0
16.7858 32.0
16.8062 22.0
16.8266 30.0
16.8471 20.0
16.8675 26.0
16.8879 30.0
16.9084 27.0
16.9288 36.0
16.9492 32.0
16.9697 34.0
16.9901 24.0
17.0105 28.0
17.031 21.0
17.0514 25.0
17.0718 30.0
17.0923 26.0
17.1127 20.0
17.1331 25.0
17.1536 28.0
17.174 22.0
17.1944 24.0
17.2149 27.0
17.2353 24.0
17.2557 21.0
17.2762 30.0
17.2966 24.0
17.317 29.0
17.3375 23.0
17.3579 28.0
17.3783 30.0
17.3988 32.0
17.4192 19.0
17.4396 36.0
17.4601 18.0
17.4805 34.0
17.5009 19.0
17.5214 28.0
17.5418 24.0
17.5622 27.0
17.5827 25.0
17.6031 31.0
17.6235 26.0
17.644 30.0
17.6644 30.0
17.6848 30.0
17.7052 30.0
17.7257 18.0
17.7461 24.0
17.7665 33.0
17.787 41.0
17.8074 29.0
17.8278 28.0
17.8483 31.0
17.8687 33.0
17.8891 29.0
17.9096 31.0
17.93 27.0
17.9504 22.0
17.9709 25.0
17.9913 27.0
18.0117 38.0
18.0322 27.0
18.0526 24.0
18.073 28.0
18.0935 25.0
18.1139 29.0
18.1343 26.0
18.1548 27.0
18.1752 27.0
18.1956 28.0
18.2161 32.0
18.2365 26.0
18.2569 31.0
18.2774 29.0
18.2978 26.0
18.3182 19.0
18.3387 30.0
18.3591 23.0
18.3795 29.0
18.4 24.0
18.4204 29.0
18.4408 30.0
18.4613 30.0
18.4817 42.0
18.5021 21.0
18.5226 26.0
18.543 33.0
18.5634 27.0
18.5839 29.0
18.6043 29.0
18.6247 38.0
18.6451 23.0
18.6656 21.0
18.686 21.0
18.7064 42.0
18.7269 16.0
18.7473 24.0
18.7677 25.0
18.7882 27.0
18.8086 24.0
18.829 24.0
18.8495 32.0
18.8699 33.0
18.8903 23.0
18.9108 20.0
18.9312 26.0
18.9516 30.0
18.9721 29.0
18.9925 31.0
19.0129 24.0
19.0334 40.0
19.0538 27.0
19.0742 25.0
19.0947 32.0
19.1151 22.0
19.1355 31.0
19.156 24.0
19.1764 29.0
19.1968 30.0
19.2173 44.0
19.2377 40.0
19.2581 38.0
19.2786 26.0
19.299 43.0
19.3194 39.0
19.3399 62.0
19.3603 51.0
19.3807 51.0
19.4012 59.0
19.4216 51.0
19.442 46.0
19.4625 38.0
19.4829 42.0
19.5033 36.0
19.5237 30.0
19.5442 30.0
19.5646 24.0
19.585 25.0
19.6055 22.0
19.6259 26.0
19.6463 36.0
19.6668 24.0
19.6872 22.0
19.7076 30.0
19.7281 20.0
19.7485 27.0
19.7689 21.0
19.7894 18.0
19.8098 22.0
19.8302 26.0
19.8507 26.0
19.8711 26.0
19.8915 18.0
19.912 21.0
19.9324 22.0
19.9528 26.0
19.9733 21.0
19.9937 33.0
20.0141 25.0
20.0346 24.0
20.055 31.0
20.0754 28.0
20.0959 14.0
20.1163 29.0
20.1367 25.0
20.1572 20.0
20.1776 18.0
20.198 24.0
20.2185 23.0
20.2389 28.0
20.2593 18.0
20.2798 32.0
20.3002 24.0
20.3206 22.0
20.3411 15.0
20.3615 31.0
20.3819 20.0
20.4024 22.0
20.4228 25.0
20.4432 25.0
20.4636 31.0
20.4841 25.0
20.5045 26.0
20.5249 29.0
20.5454 19.0
20.5658 27.0
20.5862 23.0
20.6067 20.0
20.6271 20.0
20.6475 24.0
20.668 21.0
20.6884 27.0
20.7088 20.0
20.7293 30.0
20.7497 26.0
20.7701 32.0
20.7906 24.0
20.811 28.0
20.8314 27.0
20.8519 33.0
20.8723 23.0
20.8927 23.0
20.9132 27.0
20.9336 34.0
20.954 31.0
20.9745 21.0
20.9949 32.0
21.0153 25.0
21.0358 26.0
21.0562 26.0
21.0766 15.0
21.0971 27.0
21.1175 31.0
21.1379 30.0
21.1584 24.0
21.1788 24.0
21.1992 34.0
21.2197 33.0
21.2401 30.0
21.2605 27.0
21.281 25.0
21.3014 41.0
21.3218 29.0
21.3422 29.0
21.3627 33.0
21.3831 29.0
21.4035 25.0
21.424 24.0
21.4444 40.0
21.4648 31.0
21.4853 19.0
21.5057 27.0
21.5261 25.0
21.5466 22.0
21.567 17.0
21.5874 28.0
21.6079 35.0
21.6283 27.0
21.6487 25.0
21.6692 21.0
21.6896 27.0
21.71 32.0
21.7305 24.0
21.7509 23.0
21.7713 31.0
21.7918 21.0
21.8122 32.0
21.8326 31.0
21.8531 22.0
21.8735 29.0
21.8939 23.0
21.9144 27.0
21.9348 27.0
21.9552 33.0
21.9757 32.0
21.9961 32.0
22.0165 29.0
22.037 25.0
22.0574 31.0
22.0778 30.0
22.0983 29.0
22.1187 28.0
22.1391 21.0
22.1596 26.0
22.18 28.0
22.2004 31.0
22.2209 30.0
22.2413 28.0
22.2617 39.0
22.2821 26.0
22.3026 21.0
22.323 26.0
22.3434 23.0
22.3639 25.0
22.3843 33.0
22.4047 30.0
22.4252 33.0
22.4456 29.0
22.466 35.0
22.4865 29.0
22.5069 29.0
22.5273 32.0
22.5478 29.0
22.5682 18.0
22.5886 27.0
22.6091 22.0
22.6295 31.0
22.6499 29.0
22.6704 28.0
22.6908 18.0
22.7112 32.0
22.7317 20.0
22.7521 26.0
22.7725 20.0
22.793 33.0
22.8134 35.0
22.8338 28.0
22.8543 18.0
22.8747 28.0
22.8951 39.0
22.9156 33.0
22.936 28.0
22.9564 27.0
22.9769 28.0
22.9973 27.0
23.0177 29.0
23.0382 32.0
23.0586 36.0
23.079 30.0
23.0995 36.0
23.1199 43.0
23.1403 44.0
23.1608 48.0
23.1812 45.0
23.2016 34.0
23.222 41.0
23.2425 40.0
23.2629 37.0
23.2833 37.0
23.3038 34.0
23.3242 22.0
23.3446 22.0
23.3651 26.0
23.3855 32.0
23.4059 28.0
23.4264 22.0
23.4468 25.0
23.4672 25.0
23.4877 27.0
23.5081 37.0
23.5285 27.0
23.549 23.0
23.5694 22.0
23.5898 27.0
23.6103 28.0
23.6307 33.0
23.6511 25.0
23.6716 40.0
23.692 24.0
23.7124 24.0
23.7329 25.0
23.7533 30.0
23.7737 37.0
23.7942 39.0
23.8146 30.0
23.835 30.0
23.8555 27.0
23.8759 37.0
23.8963 30.0
23.9168 24.0
23.9372 20.0
23.9576 33.0
23.9781 28.0
23.9985 30.0
24.0189 28.0
24.0394 30.0
24.0598 34.0
24.0802 34.0
24.1006 23.0
24.1211 20.0
24.1415 25.0
24.1619 29.0
24.1824 25.0
24.2028 24.0
24.2232 32.0
24.2437 32.0
24.2641 21.0
24.2845 28.0
24.305 32.0
24.3254 27.0
24.3458 36.0
24.3663 35.0
24.3867 28.0
24.4071 37.0
24.4276 28.0
24.448 29.0
24.4684 27.0
24.4889 31.0
24.5093 19.0
24.5297 24.0
24.5502 26.0
24.5706 31.0
24.591 26.0
24.6115 23.0
24.6319 32.0
24.6523 31.0
24.6728 31.0
24.6932 24.0
24.7136 32.0
24.7341 31.0
24.7545 25.0
24.7749 34.0
24.7954 32.0
24.8158 27.0
24.8362 29.0
24.8567 27.0
24.8771 38.0
24.8975 25.0
24.918 27.0
24.9384 24.0
24.9588 23.0
24.9793 21.0
24.9997 30.0
25.0201 32.0
25.0405 27.0
25.061 27.0
25.0814 21.0
25.1018 29.0
25.1223 33.0
25.1427 24.0
25.1631 28.0
25.1836 31.0
25.204 16.0
25.2244 20.0
25.2449 29.0
25.2653 36.0
25.2857 25.0
25.3062 34.0
25.3266 25.0
25.347 25.0
25.3675 21.0
25.3879 33.0
25.4083 34.0
25.4288 33.0
25.4492 20.0
25.4696 16.0
25.4901 26.0
25.5105 26.0
25.5309 28.0
25.5514 20.0
25.5718 19.0
25.5922 34.0
25.6127 26.0
25.6331 25.0
25.6535 25.0
25.674 21.0
25.6944 19.0
25.7148 18.0
25.7353 31.0
25.7557 21.0
25.7761 21.0
25.7966 29.0
25.817 36.0
25.8374 16.0
25.8579 26.0
25.8783 26.0
25.8987 21.0
25.9191 25.0
25.9396 25.0
25.96 24.0
25.9804 24.0
26.0009 22.0
26.0213 27.0
26.0417 36.0
26.0622 26.0
26.0826 25.0
26.103 30.0
26.1235 28.0
26.1439 26.0
26.1643 22.0
26.1848 27.0
26.2052 19.0
26.2256 30.0
26.2461 26.0
26.2665 29.0
26.2869 39.0
26.3074 17.0
26.3278 41.0
26.3482 23.0
26.3687 25.0
26.3891 31.0
26.4095 30.0
26.43 30.0
26.4504 15.0
26.4708 23.0
26.4913 22.0
26.5117 27.0
26.5321 34.0
26.5526 25.0
26.573 22.0
26.5934 27.0
26.6139 18.0
26.6343 31.0
26.6547 26.0
26.6752 29.0
26.6956 28.0
26.716 30.0
26.7365 24.0
26.7569 28.0
26.7773 21.0
26.7978 22.0
26.8182 28.0
26.8386 31.0
26.859 30.0
26.8795 23.0
26.8999 30.0
26.9203 31.0
26.9408 29.0
26.9612 25.0
26.9816 18.0
27.0021 23.0
27.0225 24.0
27.0429 35.0
27.0634 29.0
27.0838 26.0
27.1042 34.0
27.1247 31.0
27.1451 30.0
27.1655 26.0
27.186 36.0
27.2064 23.0
27.2268 28.0
27.2473 27.0
27.2677 24.0
27.2881 25.0
27.3086 20.0
27.329 27.0
27.3494 26.0
27.3699 31.0
27.3903 33.0
27.4107 28.0
27.4312 20.0
27.4516 31.0
27.472 20.0
27.4925 32.0
27.5129 24.0
27.5333 32.0
27.5538 27.0
27.5742 19.0
27.5946 25.0
27.6151 36.0
27.6355 25.0
27.6559 21.0
27.6764 25.0
27.6968 33.0
27.7172 21.0
27.7377 30.0
27.7581 31.0
27.7785 25.0
27.7989 24.0
27.8194 31.0
27.8398 21.0
27.8602 25.0
27.8807 20.0
27.9011 26.0
27.9215 28.0
27.942 24.0
27.9624 35.0
27.9828 33.0
28.0033 27.0
28.0237 36.0
28.0441 30.0
28.0646 26.0
28.085 30.0
28.1054 22.0
28.1259 20.0
28.1463 26.0
28.1667 27.0
28.1872 28.0
28.2076 33.0
28.228 35.0
28.2485 29.0
28.2689 33.0
28.2893 26.0
28.3098 25.0
28.3302 30.0
28.3506 37.0
28.3711 45.0
28.3915 45.0
28.4119 35.0
28.4324 33.0
28.4528 35.0
28.4732 45.0
28.4937 44.0
28.5141 31.0
28.5345 41.0
28.555 37.0
28.5754 40.0
28.5958 33.0
28.6163 27.0
28.6367 29.0
28.6571 32.0
28.6775 31.0
28.698 21.0
28.7184 26.0
28.7388 33.0
28.7593 20.0
28.7797 27.0
28.8001 27.0
28.8206 23.0
28.841 27.0
28.8614 25.0
28.8819 30.0
28.9023 24.0
28.9227 28.0
28.9432 24.0
28.9636 30.0
28.984 20.0
29.0045 28.0
29.0249 31.0
29.0453 25.0
29.0658 31.0
29.0862 33.0
29.1066 35.0
29.1271 31.0
29.1475 26.0
29.1679 25.0
29.1884 23.0
29.2088 36.0
29.2292 28.0
29.2497 42.0
29.2701 29.0
29.2905 35.0
29.311 21.0
29.3314 35.0
29.3518 31.0
29.3723 32.0
29.3927 29.0
29.4131 36.0
29.4336 39.0
29.454 43.0
29.4744 65.0
29.4949 53.0
29.5153 80.0
29.5357 81.0
29.5562 107.0
29.5766 179.0
29.597 248.0
29.6174 303.0
29.6379 428.0
29.6583 533.0
29.6787 533.0
29.6992 496.0
29.7196 341.0
29.74 311.0
29.7605 279.0
29.7809 194.0
29.8013 115.0
29.8218 83.0
29.8422 68.0
29.8626 53.0
29.8831 60.0
29.9035 53.0
29.9239 45.0
29.9444 42.0
29.9648 28.0
29.9852 43.0
30.0057 29.0
30.0261 34.0
30.0465 36.0
30.067 26.0
30.0874 40.0
30.1078 26.0
30.1283 34.0
30.1487 33.0
30.1691 29.0
30.1896 28.0
30.21 28.0
30.2304 52.0
30.2509 32.0
30.2713 28.0
30.2917 33.0
30.3122 29.0
30.3326 35.0
30.353 24.0
30.3735 26.0
30.3939 29.0
30.4143 34.0
30.4348 30.0
30.4552 28.0
30.4756 27.0
30.496 26.0
30.5165 31.0
30.5369 31.0
30.5573 21.0
30.5778 25.0
30.5982 35.0
30.6186 24.0
30.6391 27.0
30.6595 33.0
30.6799 22.0
30.7004 24.0
30.7208 20.0
30.7412 35.0
30.7617 34.0
30.7821 29.0
30.8025 29.0
30.823 27.0
30.8434 34.0
30.8638 25.0
30.8843 34.0
30.9047 31.0
30.9251 34.0
30.9456 29.0
30.966 33.0
30.9864 24.0
31.0069 27.0
31.0273 38.0
31.0477 33.0
31.0682 32.0
31.0886 33.0
31.109 41.0
31.1295 37.0
31.1499 35.0
31.1703 37.0
31.1908 28.0
31.2112 30.0
31.2316 26.0
31.2521 22.0
31.2725 27.0
31.2929 38.0
31.3134 42.0
31.3338 36.0
31.3542 25.0
31.3747 30.0
31.3951 31.0
31.4155 33.0
31.4359 47.0
31.4564 31.0
31.4768 48.0
31.4972 39.0
31.5177 56.0
31.5381 44.0
31.5585 62.0
31.579 99.0
31.5994 99.0
31.6198 78.0
31.6403 98.0
31.6607 131.0
31.6811 146.0
31.7016 87.0
31.722 92.0
31.7424 90.0
31.7629 68.0
31.7833 59.0
31.8037 50.0
31.8242 49.0
31.8446 46.0
31.865 54.0
31.8855 39.0
31.9059 44.0
31.9263 48.0
31.9468 42.0
31.9672 56.0
31.9876 54.0
32.0081 78.0
32.0285 78.0
32.0489 105.0
32.0694 123.0
32.0898 110.0
32.1102 103.0
32.1307 73.0
32.1511 71.0
32.1715 53.0
32.192 43.0
32.2124 53.0
32.2328 39.0
32.2533 35.0
32.2737 41.0
32.2941 45.0
32.3146 41.0
32.335 36.0
32.3554 33.0
32.3758 34.0
32.3963 35.0
32.4167 36.0
32.4371 23.0
32.4576 22.0
32.478 28.0
32.4984 25.0
32.5189 34.0
32.5393 33.0
32.5597 19.0
32.5802 34.0
32.6006 27.0
32.621 38.0
32.6415 38.0
32.6619 32.0
32.6823 28.0
32.7028 31.0
32.7232 29.0
32.7436 31.0
32.7641 25.0
32.7845 28.0
32.8049 27.0
32.8254 29.0
32.8458 30.0
32.8662 28.0
32.8867 25.0
32.9071 29.0
32.9275 16.0
32.948 30.0
32.9684 19.0
32.9888 26.0
33.0093 27.0
33.0297 32.0
33.0501 25.0
33.0706 38.0
33.091 25.0
33.1114 39.0
33.1319 27.0
33.1523 31.0
33.1727 34.0
33.1932 31.0
33.2136 31.0
33.234 33.0
33.2544 26.0
33.2749 30.0
33.2953 28.0
33.3157 36.0
33.3362 30.0
33.3566 22.0
33.377 30.0
33.3975 29.0
33.4179 36.0
33.4383 23.0
33.4588 30.0
33.4792 38.0
33.4996 23.0
33.5201 17.0
33.5405 31.0
33.5609 29.0
33.5814 22.0
33.6018 27.0
33.6222 37.0
33.6427 24.0
33.6631 32.0
33.6835 31.0
33.704 24.0
33.7244 34.0
33.7448 25.0
33.7653 37.0
33.7857 28.0
33.8061 30.0
33.8266 17.0
33.847 19.0
33.8674 29.0
33.8879 23.0
33.9083 24.0
33.9287 33.0
33.9492 20.0
33.9696 32.0
33.99 37.0
34.0105 23.0
34.0309 30.0
34.0513 21.0
34.0718 23.0
34.0922 27.0
34.1126 34.0
34.1331 28.0
34.1535 27.0
34.1739 27.0
34.1943 27.0
34.2148 27.0
34.2352 43.0
34.2556 29.0
34.2761 33.0
34.2965 17.0
34.3169 27.0
34.3374 31.0
34.3578 25.0
34.3782 29.0
34.3987 30.0
34.4191 34.0
34.4395 27.0
34.46 32.0
34.4804 31.0
34.5008 29.0
34.5213 35.0
34.5417 31.0
34.5621 26.0
34.5826 31.0
34.603 34.0
34.6234 24.0
34.6439 28.0
34.6643 25.0
34.6847 34.0
34.7052 24.0
34.7256 30.0
34.746 27.0
34.7665 25.0
34.7869 23.0
34.8073 31.0
34.8278 23.0
34.8482 26.0
34.8686 25.0
34.8891 28.0
34.9095 21.0
34.9299 27.0
34.9504 23.0
34.9708 27.0
34.9912 31.0
35.0117 30.0
35.0321 21.0
35.0525 30.0
35.0729 21.0
35.0934 21.0
35.1138 27.0
35.1342 17.0
35.1547 17.0
35.1751 25.0
35.1955 21.0
35.216 20.0
35.2364 29.0
35.2568 22.0
35.2773 27.0
35.2977 22.0
35.3181 26.0
35.3386 25.0
35.359 20.0
35.3794 25.0
35.3999 25.0
35.4203 32.0
35.4407 23.0
35.4612 28.0
35.4816 24.0
35.502 41.0
35.5225 33.0
35.5429 35.0
35.5633 33.0
35.5838 39.0
35.6042 33.0
35.6246 36.0
35.6451 32.0
35.6655 44.0
35.6859 41.0
35.7064 53.0
35.7268 59.0
35.7472 59.0
35.7677 59.0
35.7881 38.0
35.8085 43.0
35.829 43.0
35.8494 40.0
35.8698 42.0
35.8903 31.0
35.9107 31.0
35.9311 40.0
35.9516 35.0
35.972 31.0
35.9924 26.0
36.0128 34.0
36.0333 29.0
36.0537 22.0
36.0741 32.0
36.0946 24.0
36.115 27.0
36.1354 12.0
36.1559 37.0
36.1763 31.0
36.1967 30.0
36.2172 22.0
36.2376 30.0
36.258 35.0
36.2785 33.0
36.2989 24.0
36.3193 24.0
36.3398 23.0
36.3602 26.0
36.3806 26.0
36.4011 24.0
36.4215 29.0
36.4419 31.0
36.4624 32.0
36.4828 22.0
36.5032 37.0
36.5237 29.0
36.5441 28.0
36.5645 41.0
36.585 21.0
36.6054 35.0
36.6258 30.0
36.6463 30.0
36.6667 32.0
36.6871 37.0
36.7076 40.0
36.728 23.0
36.7484 53.0
36.7689 36.0
36.7893 25.0
36.8097 45.0
36.8302 49.0
36.8506 39.0
36.871 30.0
36.8915 49.0
36.9119 47.0
36.9323 36.0
36.9527 40.0
36.9732 46.0
36.9936 52.0
37.014 62.0
37.0345 59.0
37.0549 54.0
37.0753 67.0
37.0958 95.0
37.1162 116.0
37.1366 149.0
37.1571 176.0
37.1775 196.0
37.1979 254.0
37.2184 333.0
37.2388 301.0
37.2592 276.0
37.2797 245.0
37.3001 221.0
37.3205 208.0
37.341 198.0
37.3614 161.0
37.3818 97.0
37.4023 105.0
37.4227 84.0
37.4431 75.0
37.4636 60.0
37.484 68.0
37.5044 54.0
37.5249 54.0
37.5453 33.0
37.5657 48.0
37.5862 37.0
37.6066 45.0
37.627 34.0
37.6475 42.0
37.6679 33.0
37.6883 40.0
37.7088 39.0
37.7292 34.0
37.7496 31.0
37.7701 25.0
37.7905 26.0
37.8109 30.0
37.8313 37.0
37.8518 31.0
37.8722 27.0
37.8926 34.0
37.9131 20.0
37.9335 28.0
37.9539 20.0
37.9744 25.0
37.9948 30.0
38.0152 34.0
38.0357 24.0
38.0561 31.0
38.0765 25.0
38.097 32.0
38.1174 32.0
38.1378 39.0
38.1583 26.0
38.1787 26.0
38.1991 32.0
38.2196 25.0
38.24 18.0
38.2604 18.0
38.2809 28.0
38.3013 26.0
38.3217 27.0
38.3422 41.0
38.3626 34.0
38.383 26.0
38.4035 27.0
38.4239 19.0
38.4443 28.0
38.4648 25.0
38.4852 22.0
38.5056 29.0
38.5261 25.0
38.5465 34.0
38.5669 33.0
38.5874 34.0
38.6078 30.0
38.6282 24.0
38.6487 36.0
38.6691 26.0
38.6895 34.0
38.71 43.0
38.7304 31.0
38.7508 26.0
38.7712 30.0
38.7917 43.0
38.8121 30.0
38.8325 35.0
38.853 31.0
38.8734 36.0
38.8938 49.0
38.9143 45.0
38.9347 68.0
38.9551 74.0
38.9756 39.0
38.996 55.0
39.0164 58.0
39.0369 47.0
39.0573 39.0
39.0777 44.0
39.0982 49.0
39.1186 43.0
39.139 39.0
39.1595 54.0
39.1799 45.0
39.2003 67.0
39.2208 59.0
39.2412 80.0
39.2616 118.0
39.2821 111.0
39.3025 107.0
39.3229 109.0
39.3434 89.0
39.3638 88.0
39.3842 78.0
39.4047 94.0
39.4251 50.0
39.4455 49.0
39.466 47.0
39.4864 31.0
39.5068 37.0
39.5273 38.0
39.5477 32.0
39.5681 42.0
39.5886 26.0
39.609 32.0
39.6294 32.0
39.6498 36.0
39.6703 26.0
39.6907 41.0
39.7111 36.0
39.7316 30.0
39.752 22.0
39.7724 24.0
39.7929 32.0
39.8133 21.0
39.8337 38.0
39.8542 30.0
39.8746 29.0
39.895 20.0
39.9155 35.0
39.9359 25.0
39.9563 42.0
39.9768 37.0
39.9972 34.0
40.0176 36.0
40.0381 17.0
40.0585 30.0
40.0789 32.0
40.0994 37.0
40.1198 25.0
40.1402 32.0
40.1607 31.0
40.1811 31.0
40.2015 35.0
40.222 36.0
40.2424 37.0
40.2628 20.0
40.2833 28.0
40.3037 30.0
40.3241 33.0
40.3446 32.0
40.365 34.0
40.3854 28.0
40.4059 22.0
40.4263 24.0
40.4467 30.0
40.4672 32.0
40.4876 27.0
40.508 30.0
40.5285 29.0
40.5489 33.0
40.5693 30.0
40.5897 36.0
40.6102 29.0
40.6306 41.0
40.651 26.0
40.6715 28.0
40.6919 27.0
40.7123 36.0
40.7328 33.0
40.7532 25.0
40.7736 27.0
40.7941 35.0
40.8145 35.0
40.8349 28.0
40.8554 34.0
40.8758 28.0
40.8962 27.0
40.9167 25.0
40.9371 29.0
40.9575 33.0
40.978 24.0
40.9984 33.0
41.0188 36.0
41.0393 30.0
41.0597 26.0
41.0801 19.0
41.1006 24.0
41.121 33.0
41.1414 22.0
41.1619 18.0
41.1823 32.0
41.2027 33.0
41.2232 23.0
41.2436 32.0
41.264 25.0
41.2845 32.0
41.3049 27.0
41.3253 31.0
41.3458 33.0
41.3662 24.0
41.3866 41.0
41.4071 36.0
41.4275 30.0
41.4479 34.0
41.4684 28.0
41.4888 27.0
41.5092 31.0
41.5296 29.0
41.5501 17.0
41.5705 31.0
41.5909 29.0
41.6114 36.0
41.6318 39.0
41.6522 32.0
41.6727 29.0
41.6931 34.0
41.7135 25.0
41.734 19.0
41.7544 31.0
41.7748 32.0
41.7953 35.0
41.8157 26.0
41.8361 21.0
41.8566 30.0
41.877 24.0
41.8974 25.0
41.9179 32.0
41.9383 32.0
41.9587 27.0
41.9792 27.0
41.9996 30.0
42.02 31.0
42.0405 19.0
42.0609 26.0
42.0813 39.0
42.1018 33.0
42.1222 24.0
42.1426 26.0
42.1631 23.0
42.1835 29.0
42.2039 30.0
42.2244 31.0
42.2448 22.0
42.2652 19.0
42.2857 26.0
42.3061 27.0
42.3265 33.0
42.347 36.0
42.3674 23.0
42.3878 28.0
42.4082 20.0
42.4287 28.0
42.4491 38.0
42.4695 34.0
42.49 22.0
42.5104 24.0
42.5308 29.0
42.5513 26.0
42.5717 36.0
42.5921 29.0
42.6126 30.0
42.633 31.0
42.6534 27.0
42.6739 30.0
42.6943 24.0
42.7147 30.0
42.7352 35.0
42.7556 27.0
42.776 41.0
42.7965 49.0
42.8169 49.0
42.8373 50.0
42.8578 67.0
42.8782 72.0
42.8986 55.0
42.9191 61.0
42.9395 48.0
42.9599 43.0
42.9804 59.0
43.0008 45.0
43.0212 44.0
43.0417 34.0
43.0621 33.0
43.0825 31.0
43.103 30.0
43.1234 21.0
43.1438 25.0
43.1643 28.0
43.1847 25.0
43.2051 33.0
43.2256 23.0
43.246 27.0
43.2664 32.0
43.2869 29.0
43.3073 28.0
43.3277 24.0
43.3481 27.0
43.3686 29.0
43.389 30.0
43.4094 18.0
43.4299 20.0
43.4503 18.0
43.4707 38.0
43.4912 25.0
43.5116 28.0
43.532 20.0
43.5525 31.0
43.5729 28.0
43.5933 31.0
43.6138 27.0
43.6342 26.0
43.6546 25.0
43.6751 30.0
43.6955 25.0
43.7159 26.0
43.7364 12.0
43.7568 35.0
43.7772 32.0
43.7977 25.0
43.8181 30.0
43.8385 30.0
43.859 19.0
43.8794 25.0
43.8998 27.0
43.9203 28.0
43.9407 19.0
43.9611 17.0
43.9816 34.0
44.002 25.0
44.0224 25.0
44.0429 36.0
44.0633 25.0
44.0837 19.0
44.1042 28.0
44.1246 25.0
44.145 29.0
44.1655 22.0
44.1859 21.0
44.2063 32.0
44.2267 30.0
44.2472 33.0
44.2676 27.0
44.288 27.0
44.3085 24.0
44.3289 20.0
44.3493 36.0
44.3698 22.0
44.3902 27.0
44.4106 26.0
44.4311 25.0
44.4515 27.0
44.4719 26.0
44.4924 18.0
44.5128 33.0
44.5332 30.0
44.5537 23.0
44.5741 32.0
44.5945 20.0
44.615 26.0
44.6354 27.0
44.6558 35.0
44.6763 32.0
44.6967 33.0
44.7171 35.0
44.7376 24.0
44.758 30.0
44.7784 31.0
44.7989 31.0
44.8193 30.0
44.8397 33.0
44.8602 36.0
44.8806 29.0
44.901 33.0
44.9215 35.0
44.9419 27.0
44.9623 29.0
44.9828 33.0
45.0032 29.0
45.0236 40.0
45.0441 27.0
45.0645 40.0
45.0849 39.0
45.1054 53.0
45.1258 54.0
45.1462 59.0
45.1666 88.0
45.1871 61.0
45.2075 69.0
45.2279 65.0
45.2484 73.0
45.2688 58.0
45.2892 67.0
45.3097 57.0
45.3301 55.0
45.3505 50.0
45.371 35.0
45.3914 39.0
45.4118 38.0
45.4323 32.0
45.4527 23.0
45.4731 26.0
45.4936 26.0
45.514 32.0
45.5344 34.0
45.5549 25.0
45.5753 30.0
45.5957 30.0
45.6162 32.0
45.6366 25.0
45.657 31.0
45.6775 34.0
45.6979 31.0
45.7183 32.0
45.7388 36.0
45.7592 37.0
45.7796 30.0
45.8001 31.0
45.8205 30.0
45.8409 29.0
45.8614 28.0
45.8818 33.0
45.9022 26.0
45.9227 26.0
45.9431 28.0
45.9635 28.0
45.984 30.0
46.0044 28.0
46.0248 22.0
46.0453 21.0
46.0657 30.0
46.0861 26.0
46.1065 35.0
46.127 27.0
46.1474 24.0
46.1678 35.0
46.1883 26.0
46.2087 28.0
46.2291 27.0
46.2496 34.0
46.27 33.0
46.2904 38.0
46.3109 33.0
46.3313 27.0
46.3517 22.0
46.3722 37.0
46.3926 26.0
46.413 24.0
46.4335 29.0
46.4539 31.0
46.4743 30.0
46.4948 31.0
46.5152 39.0
46.5356 24.0
46.5561 31.0
46.5765 31.0
46.5969 40.0
46.6174 26.0
46.6378 27.0
46.6582 34.0
46.6787 23.0
46.6991 27.0
46.7195 25.0
46.74 35.0
46.7604 23.0
46.7808 23.0
46.8013 29.0
46.8217 37.0
46.8421 36.0
46.8626 34.0
46.883 35.0
46.9034 41.0
46.9239 39.0
46.9443 38.0
46.9647 34.0
46.9851 31.0
47.0056 37.0
47.026 44.0
47.0464 46.0
47.0669 31.0
47.0873 26.0
47.1077 22.0
47.1282 23.0
47.1486 30.0
47.169 26.0
47.1895 22.0
47.2099 31.0
47.2303 33.0
47.2508 21.0
47.2712 33.0
47.2916 23.0
47.3121 32.0
47.3325 25.0
47.3529 31.0
47.3734 23.0
47.3938 44.0
47.4142 20.0
47.4347 38.0
47.4551 23.0
47.4755 41.0
47.496 26.0
47.5164 24.0
47.5368 25.0
47.5573 20.0
47.5777 37.0
47.5981 31.0
47.6186 36.0
47.639 32.0
47.6594 23.0
47.6799 19.0
47.7003 27.0
47.7207 37.0
47.7412 26.0
47.7616 21.0
47.782 34.0
47.8025 33.0
47.8229 32.0
47.8433 39.0
47.8638 36.0
47.8842 45.0
47.9046 34.0
47.925 56.0
47.9455 58.0
47.9659 73.0
47.9863 92.0
48.0068 92.0
48.0272 131.0
48.0476 88.0
48.0681 83.0
48.0885 74.0
48.1089 74.0
48.1294 64.0
48.1498 72.0
48.1702 73.0
48.1907 66.0
48.2111 56.0
48.2315 44.0
48.252 46.0
48.2724 31.0
48.2928 38.0
48.3133 59.0
48.3337 36.0
48.3541 30.0
48.3746 34.0
48.395 33.0
48.4154 31.0
48.4359 44.0
48.4563 31.0
48.4767 46.0
48.4972 52.0
48.5176 58.0
48.538 42.0
48.5585 70.0
48.5789 67.0
48.5993 65.0
48.6198 47.0
48.6402 42.0
48.6606 50.0
48.6811 50.0
48.7015 63.0
48.7219 52.0
48.7424 33.0
48.7628 43.0
48.7832 34.0
48.8036 38.0
48.8241 31.0
48.8445 28.0
48.8649 43.0
48.8854 23.0
48.9058 25.0
48.9262 27.0
48.9467 36.0
48.9671 47.0
48.9875 38.0
49.008 30.0
49.0284 37.0
49.0488 30.0
49.0693 24.0
49.0897 28.0
49.1101 25.0
49.1306 36.0
49.151 32.0
49.1714 28.0
49.1919 28.0
49.2123 32.0
49.2327 35.0
49.2532 28.0
49.2736 32.0
49.294 34.0
49.3145 34.0
49.3349 37.0
49.3553 29.0
49.3758 30.0
49.3962 27.0
49.4166 35.0
49.4371 18.0
49.4575 25.0
49.4779 25.0
49.4984 38.0
49.5188 29.0
49.5392 32.0
49.5597 23.0
49.5801 31.0
49.6005 31.0
49.621 31.0
49.6414 32.0
49.6618 19.0
49.6823 37.0
49.7027 31.0
49.7231 28.0
49.7435 23.0
49.764 31.0
49.7844 25.0
49.8048 31.0
49.8253 36.0
49.8457 26.0
49.8661 33.0
49.8866 22.0
49.907 20.0
49.9274 35.0
49.9479 38.0
49.9683 23.0
49.9887 22.0
50.0092 33.0
50.0296 32.0
50.05 37.0
50.0705 28.0
50.0909 25.0
50.1113 35.0
50.1318 26.0
50.1522 21.0
50.1726 32.0
50.1931 32.0
50.2135 22.0
50.2339 25.0
50.2544 35.0
50.2748 26.0
50.2952 26.0
50.3157 31.0
50.3361 34.0
50.3565 31.0
50.377 32.0
50.3974 44.0
50.4178 34.0
50.4383 30.0
50.4587 25.0
50.4791 24.0
50.4996 21.0
50.52 27.0
50.5404 35.0
50.5609 25.0
50.5813 31.0
50.6017 17.0
50.6221 31.0
50.6426 27.0
50.663 28.0
50.6834 32.0
50.7039 21.0
50.7243 24.0
50.7447 23.0
50.7652 30.0
50.7856 23.0
50.806 24.0
50.8265 23.0
50.8469 33.0
50.8673 21.0
50.8878 27.0
50.9082 33.0
50.9286 31.0
50.9491 30.0
50.9695 18.0
50.9899 22.0
51.0104 17.0
51.0308 31.0
51.0512 18.0
51.0717 23.0
51.0921 26.0
51.1125 22.0
51.133 27.0
51.1534 37.0
51.1738 33.0
51.1943 32.0
51.2147 26.0
51.2351 32.0
51.2556 28.0
51.276 19.0
51.2964 29.0
51.3169 29.0
51.3373 28.0
51.3577 25.0
51.3782 25.0
51.3986 20.0
51.419 32.0
51.4395 17.0
51.4599 24.0
51.4803 26.0
51.5008 28.0
51.5212 20.0
51.5416 23.0
51.562 32.0
51.5825 27.0
51.6029 32.0
51.6233 25.0
51.6438 24.0
51.6642 37.0
51.6846 30.0
51.7051 28.0
51.7255 31.0
51.7459 30.0
51.7664 35.0
51.7868 27.0
51.8072 35.0
51.8277 16.0
51.8481 28.0
51.8685 27.0
51.889 23.0
51.9094 20.0
51.9298 23.0
51.9503 21.0
51.9707 30.0
51.9911 22.0
52.0116 36.0
52.032 21.0
52.0524 33.0
52.0729 21.0
52.0933 22.0
52.1137 25.0
52.1342 35.0
52.1546 29.0
52.175 18.0
52.1955 33.0
52.2159 32.0
52.2363 25.0
52.2568 16.0
52.2772 21.0
52.2976 15.0
52.3181 29.0
52.3385 30.0
52.3589 26.0
52.3794 31.0
52.3998 26.0
52.4202 31.0
52.4407 18.0
52.4611 26.0
52.4815 22.0
52.5019 30.0
52.5224 20.0
52.5428 26.0
52.5632 31.0
52.5837 21.0
52.6041 24.0
52.6245 24.0
52.645 22.0
52.6654 35.0
52.6858 24.0
52.7063 31.0
52.7267 37.0
52.7471 27.0
52.7676 27.0
52.788 26.0
52.8084 28.0
52.8289 28.0
52.8493 22.0
52.8697 35.0
52.8902 26.0
52.9106 21.0
52.931 26.0
52.9515 31.0
52.9719 25.0
52.9923 23.0
53.0128 22.0
53.0332 20.0
53.0536 25.0
53.0741 27.0
53.0945 18.0
53.1149 27.0
53.1354 29.0
53.1558 24.0
53.1762 26.0
53.1967 24.0
53.2171 26.0
53.2375 24.0
53.258 24.0
53.2784 29.0
53.2988 30.0
53.3193 30.0
53.3397 14.0
53.3601 28.0
53.3805 32.0
53.401 21.0
53.4214 18.0
53.4418 25.0
53.4623 14.0
53.4827 31.0
53.5031 16.0
53.5236 27.0
53.544 34.0
53.5644 33.0
53.5849 23.0
53.6053 17.0
53.6257 25.0
53.6462 26.0
53.6666 30.0
53.687 31.0
53.7075 25.0
53.7279 35.0
53.7483 29.0
53.7688 23.0
53.7892 25.0
53.8096 24.0
53.8301 28.0
53.8505 21.0
53.8709 22.0
53.8914 23.0
53.9118 21.0
53.9322 17.0
53.9527 28.0
53.9731 20.0
53.9935 23.0
54.014 30.0
54.0344 28.0
54.0548 19.0
54.0753 30.0
54.0957 23.0
54.1161 20.0
54.1366 29.0
54.157 22.0
54.1774 29.0
54.1979 40.0
54.2183 17.0
54.2387 27.0
54.2592 23.0
54.2796 22.0
54.3 28.0
54.3204 33.0
54.3409 29.0
54.3613 26.0
54.3817 24.0
54.4022 34.0
54.4226 25.0
54.443 29.0
54.4635 30.0
54.4839 22.0
54.5043 31.0
54.5248 26.0
54.5452 23.0
54.5656 28.0
54.5861 21.0
54.6065 25.0
54.6269 23.0
54.6474 24.0
54.6678 29.0
54.6882 26.0
54.7087 28.0
54.7291 31.0
54.7495 29.0
54.77 25.0
54.7904 18.0
54.8108 33.0
54.8313 26.0
54.8517 29.0
54.8721 29.0
54.8926 16.0
54.913 17.0
54.9334 31.0
54.9539 16.0
54.9743 24.0
54.9947 24.0
55.0152 26.0
55.0356 17.0
55.056 21.0
55.0765 24.0
55.0969 18.0
55.1173 18.0
55.1378 25.0
55.1582 26.0
55.1786 25.0
55.199 27.0
55.2195 22.0
55.2399 29.0
55.2603 25.0
55.2808 34.0
55.3012 31.0
55.3216 27.0
55.3421 28.0
55.3625 16.0
55.3829 27.0
55.4034 40.0
55.4238 28.0
55.4442 25.0
55.4647 31.0
55.4851 31.0
55.5055 25.0
55.526 24.0
55.5464 31.0
55.5668 30.0
55.5873 36.0
55.6077 36.0
55.6281 30.0
55.6486 19.0
55.669 40.0
55.6894 24.0
55.7099 37.0
55.7303 31.0
55.7507 34.0
55.7712 31.0
55.7916 22.0
55.812 33.0
55.8325 30.0
55.8529 33.0
55.8733 42.0
55.8938 47.0
55.9142 58.0
55.9346 55.0
55.9551 56.0
55.9755 55.0
55.9959 57.0
56.0164 63.0
56.0368 68.0
56.0572 42.0
56.0777 51.0
56.0981 46.0
56.1185 50.0
56.1389 37.0
56.1594 54.0
56.1798 34.0
56.2002 47.0
56.2207 45.0
56.2411 33.0
56.2615 34.0
56.282 24.0
56.3024 32.0
56.3228 23.0
56.3433 29.0
56.3637 36.0
56.3841 26.0
56.4046 23.0
56.425 27.0
56.4454 38.0
56.4659 35.0
56.4863 33.0
56.5067 31.0
56.5272 27.0
56.5476 22.0
56.568 28.0
56.5885 33.0
56.6089 30.0
56.6293 31.0
56.6498 27.0
56.6702 34.0
56.6906 31.0
56.7111 31.0
56.7315 30.0
56.7519 41.0
56.7724 45.0
56.7928 29.0
56.8132 45.0
56.8337 45.0
56.8541 33.0
56.8745 25.0
56.895 38.0
56.9154 35.0
56.9358 50.0
56.9563 47.0
56.9767 47.0
56.9971 35.0
57.0176 42.0
57.038 29.0
57.0584 36.0
57.0788 30.0
57.0993 34.0
57.1197 23.0
57.1401 25.0
57.1606 31.0
57.181 31.0
57.2014 26.0
57.2219 23.0
57.2423 29.0
57.2627 28.0
57.2832 21.0
57.3036 25.0
57.324 42.0
57.3445 29.0
57.3649 28.0
57.3853 32.0
57.4058 25.0
57.4262 31.0
57.4466 25.0
57.4671 27.0
57.4875 33.0
57.5079 31.0
57.5284 25.0
57.5488 25.0
57.5692 33.0
57.5897 32.0
57.6101 34.0
57.6305 24.0
57.651 30.0
57.6714 34.0
57.6918 29.0
57.7123 35.0
57.7327 30.0
57.7531 35.0
57.7736 33.0
57.794 26.0
57.8144 28.0
57.8349 36.0
57.8553 23.0
57.8757 31.0
57.8962 31.0
57.9166 31.0
57.937 35.0
57.9574 32.0
57.9779 28.0
57.9983 30.0
58.0187 24.0
58.0392 31.0
58.0596 34.0
58.08 34.0
58.1005 32.0
58.1209 26.0
58.1413 34.0
58.1618 34.0
58.1822 23.0
58.2026 31.0
58.2231 29.0
58.2435 27.0
58.2639 32.0
58.2844 41.0
58.3048 33.0
58.3252 24.0
58.3457 21.0
58.3661 33.0
58.3865 23.0
58.407 24.0
58.4274 34.0
58.4478 25.0
58.4683 30.0
58.4887 31.0
58.5091 34.0
58.5296 15.0
58.55 29.0
58.5704 36.0
58.5909 18.0
58.6113 23.0
58.6317 35.0
58.6522 26.0
58.6726 26.0
58.693 37.0
58.7135 29.0
58.7339 31.0
58.7543 30.0
58.7748 36.0
58.7952 38.0
58.8156 29.0
58.8361 22.0
58.8565 39.0
58.8769 36.0
58.8973 31.0
58.9178 31.0
58.9382 33.0
58.9586 28.0
58.9791 22.0
58.9995 28.0
59.0199 32.0
59.0404 28.0
59.0608 27.0
59.0812 35.0
59.1017 28.0
59.1221 32.0
59.1425 38.0
59.163 31.0
59.1834 36.0
59.2038 33.0
59.2243 38.0
59.2447 41.0
59.2651 31.0
59.2856 33.0
59.306 38.0
59.3264 32.0
59.3469 46.0
59.3673 34.0
59.3877 34.0
59.4082 36.0
59.4286 35.0
59.449 40.0
59.4695 36.0
59.4899 39.0
59.5103 42.0
59.5308 49.0
59.5512 59.0
59.5716 56.0
59.5921 63.0
59.6125 57.0
59.6329 66.0
59.6534 77.0
59.6738 93.0
59.6942 94.0
59.7147 117.0
59.7351 103.0
59.7555 86.0
59.7759 83.0
59.7964 71.0
59.8168 68.0
59.8372 80.0
59.8577 84.0
59.8781 83.0
59.8985 75.0
59.919 64.0
59.9394 60.0
59.9598 44.0
59.9803 56.0
60.0007 45.0
60.0211 31.0
60.0416 45.0
60.062 45.0
60.0824 32.0
60.1029 39.0
60.1233 36.0
60.1437 50.0
60.1642 41.0
60.1846 33.0
60.205 33.0
60.2255 32.0
60.2459 36.0
60.2663 39.0
60.2868 38.0
60.3072 36.0
60.3276 34.0
60.3481 28.0
60.3685 33.0
60.3889 28.0
60.4094 35.0
60.4298 29.0
60.4502 34.0
60.4707 31.0
60.4911 22.0
60.5115 37.0
60.532 22.0
60.5524 32.0
60.5728 22.0
60.5933 27.0
60.6137 20.0
60.6341 27.0
60.6546 23.0
60.675 27.0
60.6954 20.0
60.7158 27.0
60.7363 29.0
60.7567 25.0
60.7771 34.0
60.7976 36.0
60.818 15.0
60.8384 24.0
60.8589 42.0
60.8793 24.0
60.8997 20.0
60.9202 27.0
60.9406 25.0
60.961 30.0
60.9815 35.0
61.0019 21.0
61.0223 30.0
61.0428 29.0
61.0632 26.0
61.0836 33.0
61.1041 29.0
61.1245 33.0
61.1449 33.0
61.1654 26.0
61.1858 26.0
61.2062 25.0
61.2267 38.0
61.2471 41.0
61.2675 30.0
61.288 32.0
61.3084 23.0
61.3288 24.0
61.3493 22.0
61.3697 29.0
61.3901 20.0
61.4106 28.0
61.431 30.0
61.4514 28.0
61.4719 33.0
61.4923 21.0
61.5127 25.0
61.5332 30.0
61.5536 29.0
61.574 34.0
61.5945 33.0
61.6149 44.0
61.6353 54.0
61.6557 30.0
61.6762 36.0
61.6966 25.0
61.717 36.0
61.7375 37.0
61.7579 25.0
61.7783 35.0
61.7988 29.0
61.8192 37.0
61.8396 32.0
61.8601 33.0
61.8805 37.0
61.9009 29.0
61.9214 37.0
61.9418 26.0
61.9622 26.0
61.9827 31.0
62.0031 25.0
62.0235 31.0
62.044 28.0
62.0644 25.0
62.0848 39.0
62.1053 28.0
62.1257 24.0
62.1461 31.0
62.1666 40.0
62.187 27.0
62.2074 34.0
62.2279 29.0
62.2483 33.0
62.2687 27.0
62.2892 23.0
62.3096 32.0
62.33 29.0
62.3505 34.0
62.3709 31.0
62.3913 30.0
62.4118 34.0
62.4322 32.0
62.4526 30.0
62.4731 28.0
62.4935 31.0
62.5139 31.0
62.5343 27.0
62.5548 34.0
62.5752 46.0
62.5956 43.0
62.6161 33.0
62.6365 30.0
62.6569 31.0
62.6774 41.0
62.6978 38.0
62.7182 32.0
62.7387 30.0
62.7591 23.0
62.7795 30.0
62.8 37.0
62.8204 31.0
62.8408 31.0
62.8613 28.0
62.8817 26.0
62.9021 31.0
62.9226 17.0
62.943 22.0
62.9634 26.0
62.9839 26.0
63.0043 29.0
63.0247 30.0
63.0452 23.0
63.0656 28.0
63.086 38.0
63.1065 24.0
63.1269 21.0
63.1473 29.0
63.1678 28.0
63.1882 34.0
63.2086 27.0
63.2291 28.0
63.2495 33.0
63.2699 34.0
63.2904 29.0
63.3108 26.0
63.3312 20.0
63.3517 30.0
63.3721 28.0
63.3925 30.0
63.413 25.0
63.4334 29.0
63.4538 35.0
63.4742 40.0
63.4947 21.0
63.5151 27.0
63.5355 29.0
63.556 31.0
63.5764 23.0
63.5968 31.0
63.6173 25.0
63.6377 29.0
63.6581 28.0
63.6786 26.0
63.699 32.0
63.7194 24.0
63.7399 35.0
63.7603 35.0
63.7807 32.0
63.8012 33.0
63.8216 32.0
63.842 28.0
63.8625 27.0
63.8829 22.0
63.9033 31.0
63.9238 31.0
63.9442 30.0
63.9646 21.0
63.9851 32.0
64.0055 34.0
64.0259 34.0
64.0464 39.0
64.0668 34.0
64.0872 36.0
64.1077 37.0
64.1281 28.0
64.1485 23.0
64.169 22.0
64.1894 35.0
64.2098 25.0
64.2303 16.0
64.2507 27.0
64.2711 38.0
64.2916 35.0
64.312 27.0
64.3324 23.0
64.3528 22.0
64.3733 24.0
64.3937 33.0
64.4141 28.0
64.4346 34.0
64.455 29.0
64.4754 31.0
64.4959 30.0
64.5163 36.0
64.5367 31.0
64.5572 33.0
64.5776 32.0
64.598 24.0
64.6185 42.0
64.6389 43.0
64.6593 30.0
64.6798 32.0
64.7002 33.0
64.7206 26.0
64.7411 28.0
64.7615 29.0
64.7819 37.0
64.8024 37.0
64.8228 35.0
64.8432 24.0
64.8637 32.0
64.8841 31.0
64.9045 31.0
64.925 24.0
64.9454 26.0
64.9658 23.0
64.9863 36.0
65.0067 27.0
65.0271 25.0
65.0476 35.0
65.068 26.0
65.0884 34.0
65.1089 39.0
65.1293 40.0
65.1497 34.0
65.1702 38.0
65.1906 25.0
65.211 37.0
65.2315 43.0
65.2519 37.0
65.2723 42.0
65.2927 46.0
65.3132 46.0
65.3336 35.0
65.354 49.0
65.3745 49.0
65.3949 46.0
65.4153 54.0
65.4358 53.0
65.4562 57.0
65.4766 64.0
65.4971 81.0
65.5175 79.0
65.5379 116.0
65.5584 108.0
65.5788 117.0
65.5992 119.0
65.6197 91.0
65.6401 89.0
65.6605 76.0
65.681 82.0
65.7014 83.0
65.7218 87.0
65.7423 76.0
65.7627 77.0
65.7831 94.0
65.8036 86.0
65.824 62.0
65.8444 70.0
65.8649 58.0
65.8853 37.0
65.9057 44.0
65.9262 49.0
65.9466 37.0
65.967 51.0
65.9875 43.0
66.0079 29.0
66.0283 26.0
66.0488 34.0
66.0692 28.0
66.0896 31.0
66.1101 26.0
66.1305 29.0
66.1509 35.0
66.1714 28.0
66.1918 36.0
66.2122 33.0
66.2326 29.0
66.2531 25.0
66.2735 34.0
66.2939 37.0
66.3144 36.0
66.3348 27.0
66.3552 40.0
66.3757 39.0
66.3961 47.0
66.4165 33.0
66.437 28.0
66.4574 31.0
66.4778 39.0
66.4983 38.0
66.5187 32.0
66.5391 41.0
66.5596 35.0
66.58 36.0
66.6004 35.0
66.6209 37.0
66.6413 22.0
66.6617 34.0
66.6822 31.0
66.7026 24.0
66.723 38.0
66.7435 28.0
66.7639 26.0
66.7843 39.0
66.8048 36.0
66.8252 32.0
66.8456 33.0
66.8661 28.0
66.8865 29.0
66.9069 33.0
66.9274 33.0
66.9478 25.0
66.9682 34.0
66.9887 27.0
67.0091 31.0
67.0295 24.0
67.05 24.0
67.0704 34.0
67.0908 25.0
67.1112 29.0
67.1317 29.0
67.1521 31.0
67.1725 34.0
67.193 17.0
67.2134 34.0
67.2338 27.0
67.2543 21.0
67.2747 40.0
67.2951 32.0
67.3156 33.0
67.336 29.0
67.3564 24.0
67.3769 35.0
67.3973 31.0
67.4177 30.0
67.4382 35.0
67.4586 31.0
67.479 36.0
67.4995 24.0
67.5199 27.0
67.5403 31.0
67.5608 24.0
67.5812 27.0
67.6016 20.0
67.6221 29.0
67.6425 30.0
67.6629 24.0
67.6834 25.0
67.7038 24.0
67.7242 25.0
67.7447 26.0
67.7651 31.0
67.7855 25.0
67.806 28.0
67.8264 23.0
67.8468 34.0
67.8673 26.0
67.8877 25.0
67.9081 25.0
67.9286 24.0
67.949 30.0
67.9694 30.0
67.9899 22.0
68.0103 21.0
68.0307 30.0
68.0511 22.0
68.0716 32.0
68.092 24.0
68.1124 21.0
68.1329 27.0
68.1533 25.0
68.1737 22.0
68.1942 22.0
68.2146 35.0
68.235 35.0
68.2555 35.0
68.2759 27.0
68.2963 21.0
68.3168 22.0
68.3372 31.0
68.3576 36.0
68.3781 24.0
68.3985 30.0
68.4189 23.0
68.4394 30.0
68.4598 20.0
68.4802 26.0
68.5007 30.0
68.5211 24.0
68.5415 26.0
68.562 20.0
68.5824 24.0
68.6028 34.0
68.6233 36.0
68.6437 33.0
68.6641 23.0
68.6846 31.0
68.705 33.0
68.7254 29.0
68.7459 37.0
68.7663 32.0
68.7867 23.0
68.8072 27.0
68.8276 28.0
68.848 28.0
68.8685 20.0
68.8889 31.0
68.9093 36.0
68.9297 34.0
68.9502 37.0
68.9706 33.0
68.991 37.0
69.0115 29.0
69.0319 24.0
69.0523 31.0
69.0728 22.0
69.0932 20.0
69.1136 34.0
69.1341 35.0
69.1545 22.0
69.1749 28.0
69.1954 22.0
69.2158 34.0
69.2362 37.0
69.2567 24.0
69.2771 36.0
69.2975 33.0
69.318 17.0
69.3384 37.0
69.3588 29.0
69.3793 32.0
69.3997 26.0
69.4201 10.0
69.4406 16.0
69.461 30.0
69.4814 21.0
69.5019 23.0
69.5223 22.0
69.5427 24.0
69.5632 40.0
69.5836 27.0
69.604 25.0
69.6245 24.0
69.6449 24.0
69.6653 33.0
69.6858 24.0
69.7062 31.0
69.7266 24.0
69.7471 19.0
69.7675 24.0
69.7879 30.0
69.8084 27.0
69.8288 25.0
69.8492 27.0
69.8696 25.0
69.8901 22.0
69.9105 23.0
69.9309 23.0
69.9514 22.0
69.9718 25.0
69.9922 27.0
70.0127 24.0
70.0331 29.0
70.0535 23.0
70.074 26.0
70.0944 20.0
70.1148 31.0
70.1353 25.0
70.1557 29.0
70.1761 25.0
70.1966 28.0
70.217 22.0
70.2374 31.0
70.2579 23.0
70.2783 19.0
70.2987 30.0
70.3192 21.0
70.3396 24.0
70.36 30.0
70.3805 16.0
70.4009 31.0
70.4213 16.0
70.4418 17.0
70.4622 24.0
70.4826 26.0
70.5031 31.0
70.5235 30.0
70.5439 27.0
70.5644 35.0
70.5848 35.0
70.6052 36.0
70.6257 16.0
70.6461 29.0
70.6665 25.0
70.687 17.0
70.7074 17.0
70.7278 27.0
70.7483 43.0
70.7687 21.0
70.7891 19.0
70.8095 23.0
70.83 34.0
70.8504 28.0
70.8708 27.0
70.8913 31.0
70.9117 26.0
70.9321 25.0
70.9526 21.0
70.973 38.0
70.9934 22.0
71.0139 26.0
71.0343 28.0
71.0547 16.0
71.0752 23.0
71.0956 29.0
71.116 30.0
71.1365 33.0
71.1569 34.0
71.1773 21.0
71.1978 23.0
71.2182 25.0
71.2386 27.0
71.2591 33.0
71.2795 21.0
71.2999 27.0
71.3204 22.0
71.3408 23.0
71.3612 29.0
71.3817 28.0
71.4021 24.0
71.4225 24.0
71.443 19.0
71.4634 20.0
71.4838 32.0
71.5043 29.0
71.5247 30.0
71.5451 32.0
71.5656 28.0
71.586 27.0
71.6064 24.0
71.6269 36.0
71.6473 28.0
71.6677 23.0
71.6881 36.0
71.7086 24.0
71.729 32.0
71.7494 21.0
71.7699 25.0
71.7903 28.0
71.8107 20.0
71.8312 35.0
71.8516 20.0
71.872 22.0
71.8925 39.0
71.9129 22.0
71.9333 32.0
71.9538 23.0
71.9742 23.0
71.9946 23.0
72.0151 26.0
72.0355 22.0
72.0559 24.0
72.0764 26.0
72.0968 20.0
72.1172 21.0
72.1377 20.0
72.1581 29.0
72.1785 25.0
72.199 24.0
72.2194 22.0
72.2398 22.0
72.2603 29.0
72.2807 28.0
72.3011 23.0
72.3216 28.0
72.342 25.0
72.3624 20.0
72.3829 27.0
72.4033 36.0
72.4237 29.0
72.4442 35.0
72.4646 31.0
72.485 25.0
72.5055 25.0
72.5259 24.0
72.5463 30.0
72.5668 26.0
72.5872 35.0
72.6076 20.0
72.628 25.0
72.6485 22.0
72.6689 28.0
72.6893 23.0
72.7098 32.0
72.7302 29.0
72.7506 36.0
72.7711 30.0
72.7915 29.0
72.8119 35.0
72.8324 21.0
72.8528 28.0
72.8732 38.0
72.8937 33.0
72.9141 26.0
72.9345 26.0
72.955 35.0
72.9754 24.0
72.9958 36.0
73.0163 26.0
73.0367 33.0
73.0571 33.0
73.0776 19.0
73.098 30.0
73.1184 25.0
73.1389 31.0
73.1593 31.0
73.1797 28.0
73.2002 35.0
73.2206 21.0
73.241 32.0
73.2615 22.0
73.2819 19.0
73.3023 20.0
73.3228 27.0
73.3432 30.0
73.3636 22.0
73.3841 32.0
73.4045 20.0
73.4249 30.0
73.4454 18.0
73.4658 15.0
73.4862 24.0
73.5066 26.0
73.5271 24.0
73.5475 26.0
73.5679 27.0
73.5884 30.0
73.6088 29.0
73.6292 27.0
73.6497 23.0
73.6701 30.0
73.6905 28.0
73.711 36.0
73.7314 34.0
73.7518 26.0
73.7723 39.0
73.7927 35.0
73.8131 26.0
73.8336 28.0
73.854 26.0
73.8744 24.0
73.8949 28.0
73.9153 32.0
73.9357 30.0
73.9562 32.0
73.9766 29.0
73.997 28.0
74.0175 35.0
74.0379 39.0
74.0583 19.0
74.0788 26.0
74.0992 32.0
74.1196 26.0
74.1401 30.0
74.1605 24.0
74.1809 32.0
74.2014 25.0
74.2218 23.0
74.2422 31.0
74.2627 33.0
74.2831 32.0
74.3035 28.0
74.324 26.0
74.3444 33.0
74.3648 34.0
74.3853 26.0
74.4057 24.0
74.4261 32.0
74.4465 31.0
74.467 25.0
74.4874 31.0
74.5078 22.0
74.5283 37.0
74.5487 34.0
74.5691 25.0
74.5896 28.0
74.61 39.0
74.6304 34.0
74.6509 37.0
74.6713 38.0
74.6917 30.0
74.7122 27.0
74.7326 27.0
74.753 20.0
74.7735 35.0
74.7939 38.0
74.8143 33.0
74.8348 23.0
74.8552 32.0
74.8756 20.0
74.8961 26.0
74.9165 24.0
74.9369 32.0
74.9574 36.0
74.9778 22.0
74.9982 30.0
75.0187 35.0
75.0391 28.0
75.0595 33.0
75.08 30.0
75.1004 28.0
75.1208 30.0
75.1413 31.0
75.1617 31.0
75.1821 32.0
75.2026 33.0
75.223 34.0
75.2434 24.0
75.2639 22.0
75.2843 29.0
75.3047 35.0
75.3252 32.0
75.3456 25.0
75.366 21.0
75.3864 27.0
75.4069 36.0
75.4273 29.0
75.4477 25.0
75.4682 40.0
75.4886 27.0
75.509 25.0
75.5295 26.0
75.5499 24.0
75.5703 22.0
75.5908 32.0
75.6112 31.0
75.6316 20.0
75.6521 33.0
75.6725 34.0
75.6929 31.0
75.7134 33.0
75.7338 30.0
75.7542 26.0
75.7747 28.0
75.7951 26.0
75.8155 22.0
75.836 26.0
75.8564 20.0
75.8768 31.0
75.8973 24.0
75.9177 34.0
75.9381 25.0
75.9586 32.0
75.979 34.0
75.9994 26.0
76.0199 33.0
76.0403 25.0
76.0607 21.0
76.0812 20.0
76.1016 24.0
76.122 32.0
76.1425 22.0
76.1629 29.0
76.1833 30.0
76.2038 35.0
76.2242 32.0
76.2446 22.0
76.265 24.0
76.2855 18.0
76.3059 21.0
76.3263 37.0
76.3468 31.0
76.3672 27.0
76.3876 27.0
76.4081 24.0
76.4285 24.0
76.4489 30.0
76.4694 44.0
76.4898 32.0
76.5102 18.0
76.5307 28.0
76.5511 32.0
76.5715 18.0
76.592 23.0
76.6124 32.0
76.6328 23.0
76.6533 25.0
76.6737 27.0
76.6941 23.0
76.7146 30.0
76.735 24.0
76.7554 32.0
76.7759 32.0
76.7963 31.0
76.8167 22.0
76.8372 24.0
76.8576 28.0
76.878 34.0
76.8985 33.0
76.9189 18.0
76.9393 22.0
76.9598 27.0
76.9802 24.0
77.0006 23.0
77.0211 24.0
77.0415 32.0
77.0619 30.0
77.0824 25.0
77.1028 26.0
77.1232 25.0
77.1437 25.0
77.1641 21.0
77.1845 24.0
77.2049 29.0
77.2254 29.0
77.2458 27.0
77.2662 27.0
77.2867 24.0
77.3071 34.0
77.3275 27.0
77.348 23.0
77.3684 23.0
77.3888 28.0
77.4093 35.0
77.4297 18.0
77.4501 24.0
77.4706 36.0
77.491 34.0
77.5114 30.0
77.5319 37.0
77.5523 36.0
77.5727 45.0
77.5932 39.0
77.6136 49.0
77.634 50.0
77.6545 51.0
77.6749 53.0
77.6953 50.0
77.7158 37.0
77.7362 35.0
77.7566 24.0
77.7771 25.0
77.7975 43.0
77.8179 36.0
77.8384 28.0
77.8588 38.0
77.8792 31.0
77.8997 33.0
77.9201 34.0
77.9405 30.0
77.961 35.0
77.9814 32.0
78.0018 27.0
78.0223 26.0
78.0427 32.0
78.0631 25.0
78.0835 29.0
78.104 20.0
78.1244 30.0
78.1448 33.0
78.1653 26.0
78.1857 30.0
78.2061 34.0
78.2266 25.0
78.247 26.0
78.2674 34.0
78.2879 30.0
78.3083 30.0
78.3287 24.0
78.3492 37.0
78.3696 33.0
78.39 32.0
78.4105 27.0
78.4309 25.0
78.4513 27.0
78.4718 32.0
78.4922 27.0
78.5126 31.0
78.5331 21.0
78.5535 26.0
78.5739 29.0
78.5944 26.0
78.6148 28.0
78.6352 37.0
78.6557 31.0
78.6761 26.0
78.6965 34.0
78.717 37.0
78.7374 30.0
78.7578 31.0
78.7783 33.0
78.7987 38.0
78.8191 38.0
78.8396 32.0
78.86 31.0
78.8804 28.0
78.9009 30.0
78.9213 30.0
78.9417 29.0
78.9622 29.0
78.9826 34.0
79.003 24.0
79.0234 23.0
79.0439 25.0
79.0643 27.0
79.0847 30.0
79.1052 28.0
79.1256 28.0
79.146 22.0
79.1665 23.0
79.1869 21.0
79.2073 25.0
79.2278 29.0
79.2482 29.0
79.2686 23.0
79.2891 36.0
79.3095 27.0
79.3299 29.0
79.3504 34.0
79.3708 20.0
79.3912 20.0
79.4117 25.0
79.4321 31.0
79.4525 33.0
79.473 33.0
79.4934 22.0
79.5138 27.0
79.5343 23.0
79.5547 35.0
79.5751 28.0
79.5956 26.0
79.616 28.0
79.6364 26.0
79.6569 24.0
79.6773 20.0
79.6977 20.0
79.7182 25.0
79.7386 21.0
79.759 18.0
79.7795 27.0
79.7999 24.0
79.8203 34.0
79.8408 35.0
79.8612 25.0
79.8816 25.0
79.9021 27.0
79.9225 13.0
79.9429 21.0
79.9633 23.0
79.9838 29.0
80.0042 26.0
80.0246 23.0
80.0451 32.0
80.0655 23.0
80.0859 30.0
80.1064 31.0
80.1268 23.0
80.1472 22.0
80.1677 29.0
80.1881 20.0
80.2085 28.0
80.229 30.0
80.2494 20.0
80.2698 21.0
80.2903 24.0
80.3107 29.0
80.3311 23.0
80.3516 23.0
80.372 14.0
80.3924 24.0
80.4129 24.0
80.4333 28.0
80.4537 14.0
80.4742 28.0
80.4946 18.0
80.515 16.0
80.5355 28.0
80.5559 23.0
80.5763 24.0
80.5968 26.0
80.6172 26.0
80.6376 23.0
80.6581 22.0
80.6785 33.0
80.6989 26.0
80.7194 28.0
80.7398 25.0
80.7602 29.0
80.7807 22.0
80.8011 20.0
80.8215 28.0
80.8419 17.0
80.8624 28.0
80.8828 17.0
80.9032 35.0
80.9237 30.0
80.9441 25.0
80.9645 32.0
80.985 21.0
81.0054 15.0
81.0258 32.0
81.0463 17.0
81.0667 29.0
81.0871 29.0
81.1076 19.0
81.128 32.0
81.1484 27.0
81.1689 21.0
81.1893 19.0
81.2097 23.0
81.2302 23.0
81.2506 24.0
81.271 32.0
81.2915 23.0
81.3119 32.0
81.3323 27.0
81.3528 23.0
81.3732 25.0
81.3936 27.0
81.4141 21.0
81.4345 22.0
81.4549 25.0
81.4754 38.0
81.4958 24.0
81.5162 23.0
81.5367 28.0
81.5571 28.0
81.5775 33.0
81.598 31.0
81.6184 31.0
81.6388 32.0
81.6593 25.0
81.6797 30.0
81.7001 23.0
81.7206 18.0
81.741 33.0
81.7614 30.0
81.7818 15.0
81.8023 15.0
81.8227 28.0
81.8431 30.0
81.8636 20.0
81.884 25.0
81.9044 30.0
81.9249 30.0
81.9453 17.0
81.9657 28.0
81.9862 35.0
82.0066 28.0
82.027 26.0
82.0475 24.0
82.0679 24.0
82.0883 24.0
82.1088 16.0
82.1292 24.0
82.1496 23.0
82.1701 22.0
82.1905 21.0
82.2109 28.0
82.2314 18.0
82.2518 29.0
82.2722 26.0
82.2927 28.0
82.3131 34.0
82.3335 26.0
82.354 31.0
82.3744 25.0
82.3948 23.0
82.4153 28.0
82.4357 31.0
82.4561 29.0
82.4766 42.0
82.497 28.0
82.5174 34.0
82.5379 35.0
82.5583 29.0
82.5787 27.0
82.5992 27.0
82.6196 40.0
82.64 32.0
82.6604 37.0
82.6809 38.0
82.7013 33.0
82.7217 38.0
82.7422 29.0
82.7626 32.0
82.783 37.0
82.8035 29.0
82.8239 36.0
82.8443 34.0
82.8648 34.0
82.8852 33.0
82.9056 31.0
82.9261 26.0
82.9465 30.0
82.9669 28.0
82.9874 33.0
83.0078 33.0
83.0282 35.0
83.0487 16.0
83.0691 30.0
83.0895 25.0
83.11 21.0
83.1304 27.0
83.1508 25.0
83.1713 36.0
83.1917 29.0
83.2121 29.0
83.2326 31.0
83.253 23.0
83.2734 37.0
83.2939 25.0
83.3143 25.0
83.3347 23.0
83.3552 28.0
83.3756 35.0
83.396 18.0
83.4165 22.0
83.4369 31.0
83.4573 30.0
83.4778 25.0
83.4982 28.0
83.5186 28.0
83.5391 27.0
83.5595 19.0
83.5799 28.0
83.6003 32.0
83.6208 31.0
83.6412 24.0
83.6616 37.0
83.6821 30.0
83.7025 37.0
83.7229 28.0
83.7434 28.0
83.7638 38.0
83.7842 31.0
83.8047 17.0
83.8251 24.0
83.8455 33.0
83.866 33.0
83.8864 31.0
83.9068 30.0
83.9273 32.0
83.9477 22.0
83.9681 29.0
83.9886 30.0
84.009 37.0
84.0294 31.0
84.0499 33.0
84.0703 34.0
84.0907 21.0
84.1112 36.0
84.1316 22.0
84.152 27.0
84.1725 23.0
84.1929 21.0
84.2133 40.0
84.2338 27.0
84.2542 30.0
84.2746 21.0
84.2951 24.0
84.3155 24.0
84.3359 30.0
84.3564 23.0
84.3768 39.0
84.3972 25.0
84.4177 24.0
84.4381 23.0
84.4585 26.0
84.4789 29.0
84.4994 20.0
84.5198 26.0
84.5402 27.0
84.5607 27.0
84.5811 24.0
84.6015 27.0
84.622 28.0
84.6424 29.0
84.6628 23.0
84.6833 18.0
84.7037 32.0
84.7241 29.0
84.7446 20.0
84.765 29.0
84.7854 25.0
84.8059 12.0
84.8263 18.0
84.8467 15.0
84.8672 25.0
84.8876 25.0
84.908 29.0
84.9285 29.0
84.9489 26.0
84.9693 26.0
84.9898 20.0
85.0102 21.0
85.0306 31.0
85.0511 28.0
85.0715 29.0
85.0919 38.0
85.1124 28.0
85.1328 27.0
85.1532 27.0
85.1737 31.0
85.1941 17.0
85.2145 27.0
85.235 30.0
85.2554 33.0
85.2758 22.0
85.2963 35.0
85.3167 29.0
85.3371 20.0
85.3576 21.0
85.378 33.0
85.3984 34.0
85.4188 29.0
85.4393 20.0
85.4597 21.0
85.4801 29.0
85.5006 21.0
85.521 31.0
85.5414 35.0
85.5619 22.0
85.5823 28.0
85.6027 23.0
85.6232 22.0
85.6436 21.0
85.664 26.0
85.6845 26.0
85.7049 26.0
85.7253 23.0
85.7458 23.0
85.7662 21.0
85.7866 25.0
85.8071 25.0
85.8275 28.0
85.8479 22.0
85.8684 26.0
85.8888 19.0
85.9092 30.0
85.9297 27.0
85.9501 24.0
85.9705 24.0
85.991 27.0
86.0114 21.0
86.0318 23.0
86.0523 26.0
86.0727 23.0
86.0931 33.0
86.1136 21.0
86.134 26.0
86.1544 33.0
86.1749 24.0
86.1953 25.0
86.2157 31.0
86.2362 31.0
86.2566 20.0
86.277 26.0
86.2975 26.0
86.3179 22.0
86.3383 23.0
86.3587 33.0
86.3792 34.0
86.3996 31.0
86.42 31.0
86.4405 29.0
86.4609 22.0
86.4813 24.0
86.5018 22.0
86.5222 19.0
86.5426 30.0
86.5631 26.0
86.5835 39.0
86.6039 30.0
86.6244 24.0
86.6448 17.0
86.6652 28.0
86.6857 25.0
86.7061 24.0
86.7265 21.0
86.747 26.0
86.7674 20.0
86.7878 31.0
86.8083 31.0
86.8287 30.0
86.8491 22.0
86.8696 13.0
86.89 28.0
86.9104 23.0
86.9309 20.0
86.9513 28.0
86.9717 30.0
86.9922 18.0
87.0126 21.0
87.033 30.0
87.0535 24.0
87.0739 19.0
87.0943 32.0
87.1148 21.0
87.1352 29.0
87.1556 28.0
87.1761 29.0
87.1965 24.0
87.2169 24.0
87.2373 27.0
87.2578 29.0
87.2782 35.0
87.2986 31.0
87.3191 31.0
87.3395 25.0
87.3599 31.0
87.3804 28.0
87.4008 38.0
87.4212 21.0
87.4417 32.0
87.4621 19.0
87.4825 18.0
87.503 17.0
87.5234 13.0
87.5438 24.0
87.5643 32.0
87.5847 28.0
87.6051 28.0
87.6256 24.0
87.646 23.0
87.6664 25.0
87.6869 27.0
87.7073 23.0
87.7277 27.0
87.7482 21.0
87.7686 27.0
87.789 17.0
87.8095 20.0
87.8299 23.0
87.8503 23.0
87.8708 33.0
87.8912 25.0
87.9116 22.0
87.9321 23.0
87.9525 24.0
87.9729 17.0
87.9934 33.0
88.0138 30.0
88.0342 21.0
88.0547 31.0
88.0751 27.0
88.0955 30.0
88.116 30.0
88.1364 26.0
88.1568 29.0
88.1772 28.0
88.1977 31.0
88.2181 26.0
88.2385 30.0
88.259 24.0
88.2794 22.0
88.2998 26.0
88.3203 33.0
88.3407 21.0
88.3611 16.0
88.3816 32.0
88.402 26.0
88.4224 24.0
88.4429 30.0
88.4633 23.0
88.4837 21.0
88.5042 22.0
88.5246 25.0
88.545 23.0
88.5655 42.0
88.5859 36.0
88.6063 34.0
88.6268 35.0
88.6472 23.0
88.6676 30.0
88.6881 29.0
88.7085 24.0
88.7289 23.0
88.7494 28.0
88.7698 32.0
88.7902 27.0
88.8107 34.0
88.8311 21.0
88.8515 32.0
88.872 26.0
88.8924 26.0
88.9128 25.0
88.9333 29.0
88.9537 30.0
88.9741 26.0
88.9946 31.0
89.015 23.0
89.0354 30.0
89.0558 33.0
89.0763 21.0
89.0967 23.0
89.1171 36.0
89.1376 25.0
89.158 18.0
89.1784 21.0
89.1989 34.0
89.2193 36.0
89.2397 19.0
89.2602 27.0
89.2806 32.0
89.301 32.0
89.3215 25.0
89.3419 27.0
89.3623 27.0
89.3828 32.0
89.4032 20.0
89.4236 35.0
89.4441 22.0
89.4645 26.0
89.4849 30.0
89.5054 20.0
89.5258 25.0
89.5462 14.0
89.5667 14.0
89.5871 35.0
89.6075 26.0
89.628 25.0
89.6484 33.0
89.6688 14.0
89.6893 22.0
89.7097 22.0
89.7301 26.0
89.7506 31.0
89.771 28.0
89.7914 29.0
89.8119 28.0
89.8323 23.0
89.8527 27.0
89.8732 29.0
89.8936 33.0
89.914 15.0
89.9345 33.0
89.9549 20.0
89.9753 25.0
89.9957 23.0
90.0162 33.0
90.0366 30.0
90.057 22.0
90.0775 30.0
90.0979 23.0
